# TOPAS Version: 3.1.p3
# Parameter File: REDLEN_small_phantom_mc_basic_4cm.txt
# Results for scorer PhantomDose
# Scored on surface: CdTeCrystal1/YPlusSurface
# X in 100 bins of 0.03332 cm
# Y in 1 bin  of 0.4 cm
# Z in 100 bins of 0.0375 cm
# SurfaceTrackCount : Sum   
# Binned by incident track energy in 100 bins of 0.00104 MeV from 0.016 MeV to 0.12 MeV
# First bin is underflow, next to last bin is overflow, last bin is for case of no incident track.
0, 0, 0, 0, 0, 0, 0, 0, 0, 0, 1, 0, 1, 1, 2, 2, 0, 1, 2, 0, 2, 1, 3, 2, 6, 2, 2, 8, 1, 0, 2, 7, 3, 2, 5, 2, 2, 1, 0, 3, 1, 0, 1, 1, 0, 0, 0, 0, 0, 0, 0, 0, 0, 0, 0, 0, 0, 0, 0, 0, 0, 0, 0, 0, 0, 0, 0, 0, 0, 0, 0, 0, 0, 0, 0, 0, 0, 0, 0, 0, 0, 0, 0, 0, 0, 0, 0, 0, 0, 0, 0, 0, 0, 0, 0, 0, 0, 0, 0, 0, 0, 0, 0, 0, 0, 0
0, 0, 1, 0, 0, 0, 0, 0, 0, 0, 1, 0, 0, 0, 3, 1, 0, 3, 3, 2, 4, 2, 1, 2, 5, 2, 4, 1, 2, 0, 3, 4, 1, 2, 2, 4, 2, 0, 0, 0, 3, 1, 2, 1, 0, 0, 0, 0, 0, 0, 0, 0, 0, 0, 0, 0, 0, 0, 0, 0, 0, 0, 0, 0, 0, 0, 0, 0, 0, 0, 0, 0, 0, 0, 0, 0, 0, 0, 0, 0, 0, 0, 0, 0, 0, 0, 0, 0, 0, 0, 0, 0, 0, 0, 0, 0, 0, 0, 0, 0, 0, 0, 0, 0, 0, 0
0, 0, 2, 0, 0, 0, 0, 0, 0, 0, 2, 0, 0, 0, 3, 2, 0, 3, 0, 2, 4, 1, 5, 7, 2, 3, 1, 0, 1, 3, 2, 0, 2, 3, 2, 0, 1, 4, 0, 0, 1, 0, 0, 2, 0, 0, 0, 0, 0, 0, 0, 0, 0, 0, 0, 0, 0, 0, 0, 0, 0, 0, 0, 0, 0, 0, 0, 0, 0, 0, 0, 0, 0, 0, 0, 0, 0, 0, 0, 0, 0, 0, 0, 0, 0, 0, 0, 0, 0, 0, 0, 0, 0, 0, 0, 0, 0, 0, 0, 0, 0, 0, 0, 0, 0, 0
0, 0, 3, 0, 0, 0, 0, 0, 0, 0, 0, 0, 0, 0, 2, 0, 3, 1, 2, 2, 2, 1, 1, 1, 5, 1, 1, 0, 2, 0, 1, 3, 3, 1, 1, 2, 0, 1, 2, 0, 1, 1, 1, 1, 1, 0, 0, 0, 0, 0, 0, 0, 0, 0, 0, 0, 0, 0, 0, 0, 0, 0, 0, 0, 0, 0, 0, 0, 0, 0, 0, 0, 0, 0, 0, 0, 0, 0, 0, 0, 0, 0, 0, 0, 0, 0, 0, 0, 0, 0, 0, 0, 0, 0, 0, 0, 0, 0, 0, 0, 0, 0, 0, 0, 0, 0
0, 0, 4, 0, 0, 0, 0, 0, 0, 0, 2, 0, 1, 0, 0, 3, 6, 3, 6, 1, 3, 0, 3, 2, 2, 5, 4, 2, 0, 3, 1, 3, 0, 0, 2, 5, 1, 2, 4, 1, 1, 1, 1, 0, 0, 0, 0, 0, 0, 0, 0, 0, 0, 0, 0, 0, 0, 0, 0, 0, 0, 0, 0, 0, 0, 0, 0, 0, 0, 0, 0, 0, 0, 0, 0, 0, 0, 0, 0, 0, 0, 0, 0, 0, 0, 0, 0, 0, 0, 0, 0, 0, 0, 0, 0, 0, 0, 0, 0, 0, 0, 0, 0, 0, 0, 0
0, 0, 5, 2, 1, 4, 6, 11, 14, 21, 70, 39, 47, 62, 71, 82, 81, 77, 112, 106, 118, 117, 106, 93, 114, 94, 83, 114, 81, 85, 77, 83, 72, 62, 64, 55, 53, 55, 46, 42, 39, 36, 20, 23, 20, 12, 0, 0, 0, 0, 0, 0, 0, 0, 0, 0, 0, 0, 0, 0, 0, 0, 0, 0, 0, 0, 0, 0, 0, 0, 0, 0, 0, 0, 0, 0, 0, 0, 0, 0, 0, 0, 0, 0, 0, 0, 0, 0, 0, 0, 0, 0, 0, 0, 0, 0, 0, 0, 0, 0, 0, 0, 0, 0, 0, 0
0, 0, 6, 0, 1, 5, 11, 20, 45, 52, 132, 90, 105, 163, 175, 183, 178, 241, 214, 244, 215, 271, 252, 240, 257, 268, 232, 197, 237, 222, 187, 194, 188, 162, 160, 162, 128, 126, 118, 122, 92, 65, 79, 57, 45, 20, 1, 0, 0, 0, 0, 0, 0, 0, 0, 0, 0, 0, 0, 0, 0, 0, 0, 0, 0, 0, 0, 0, 0, 0, 0, 0, 0, 0, 0, 0, 0, 0, 0, 0, 0, 0, 0, 0, 0, 0, 0, 0, 0, 0, 0, 0, 0, 0, 0, 0, 0, 0, 0, 0, 0, 0, 0, 0, 0, 0
0, 0, 7, 1, 3, 3, 17, 24, 47, 60, 109, 109, 124, 130, 182, 202, 176, 244, 219, 246, 225, 243, 238, 232, 222, 259, 207, 229, 223, 216, 197, 190, 182, 188, 191, 147, 123, 110, 112, 88, 81, 76, 67, 52, 53, 29, 1, 0, 0, 0, 0, 0, 0, 0, 0, 0, 0, 0, 0, 0, 0, 0, 0, 0, 0, 0, 0, 0, 0, 0, 0, 0, 0, 0, 0, 0, 0, 0, 0, 0, 0, 0, 0, 0, 0, 0, 0, 0, 0, 0, 0, 0, 0, 0, 0, 0, 0, 0, 0, 0, 0, 0, 0, 0, 0, 0
0, 0, 8, 3, 2, 4, 14, 26, 52, 45, 117, 88, 123, 136, 147, 204, 199, 211, 220, 259, 243, 226, 260, 223, 268, 250, 244, 225, 212, 209, 220, 182, 183, 167, 173, 142, 148, 136, 134, 116, 73, 77, 72, 55, 42, 15, 4, 0, 0, 0, 0, 0, 0, 0, 0, 0, 0, 0, 0, 0, 0, 0, 0, 0, 0, 0, 0, 0, 0, 0, 0, 0, 0, 0, 0, 0, 0, 0, 0, 0, 0, 0, 0, 0, 0, 0, 0, 0, 0, 0, 0, 0, 0, 0, 0, 0, 0, 0, 0, 0, 0, 0, 0, 0, 0, 0
0, 0, 9, 2, 4, 6, 11, 19, 32, 46, 111, 91, 107, 132, 166, 198, 190, 218, 258, 233, 247, 246, 243, 249, 213, 222, 252, 234, 212, 209, 183, 198, 156, 193, 159, 155, 142, 125, 101, 111, 78, 71, 69, 56, 31, 24, 1, 0, 0, 0, 0, 0, 0, 0, 0, 0, 0, 0, 0, 0, 0, 0, 0, 0, 0, 0, 0, 0, 0, 0, 0, 0, 0, 0, 0, 0, 0, 0, 0, 0, 0, 0, 0, 0, 0, 0, 0, 0, 0, 0, 0, 0, 0, 0, 0, 0, 0, 0, 0, 0, 0, 0, 0, 0, 0, 0
0, 0, 10, 9, 4, 9, 11, 23, 50, 58, 102, 78, 110, 130, 164, 211, 215, 211, 245, 223, 200, 283, 250, 268, 276, 238, 217, 221, 249, 206, 221, 196, 189, 142, 167, 131, 124, 160, 122, 103, 101, 77, 76, 70, 38, 19, 2, 0, 0, 0, 0, 0, 0, 0, 0, 0, 0, 0, 0, 0, 0, 0, 0, 0, 0, 0, 0, 0, 0, 0, 0, 0, 0, 0, 0, 0, 0, 0, 0, 0, 0, 0, 0, 0, 0, 0, 0, 0, 0, 0, 0, 0, 0, 0, 0, 0, 0, 0, 0, 0, 0, 0, 0, 0, 0, 0
0, 0, 11, 1, 5, 13, 18, 20, 54, 56, 106, 87, 125, 143, 170, 171, 204, 202, 231, 255, 266, 260, 237, 237, 250, 279, 238, 206, 223, 196, 194, 160, 173, 180, 164, 132, 143, 110, 111, 78, 87, 73, 70, 57, 42, 18, 1, 0, 0, 0, 0, 0, 0, 0, 0, 0, 0, 0, 0, 0, 0, 0, 0, 0, 0, 0, 0, 0, 0, 0, 0, 0, 0, 0, 0, 0, 0, 0, 0, 0, 0, 0, 0, 0, 0, 0, 0, 0, 0, 0, 0, 0, 0, 0, 0, 0, 0, 0, 0, 0, 0, 0, 0, 0, 0, 0
0, 0, 12, 2, 1, 10, 10, 33, 33, 55, 126, 98, 121, 136, 136, 178, 198, 224, 261, 247, 224, 251, 323, 226, 220, 220, 253, 216, 198, 200, 225, 189, 185, 193, 147, 158, 151, 103, 109, 116, 90, 68, 59, 70, 46, 26, 1, 0, 0, 0, 0, 0, 0, 0, 0, 0, 0, 0, 0, 0, 0, 0, 0, 0, 0, 0, 0, 0, 0, 0, 0, 0, 0, 0, 0, 0, 0, 0, 0, 0, 0, 0, 0, 0, 0, 0, 0, 0, 0, 0, 0, 0, 0, 0, 0, 0, 0, 0, 0, 0, 0, 0, 0, 0, 0, 0
0, 0, 13, 1, 6, 7, 16, 29, 35, 49, 105, 99, 109, 141, 166, 217, 202, 222, 233, 246, 218, 247, 237, 238, 254, 241, 263, 226, 221, 198, 192, 203, 180, 142, 166, 160, 156, 138, 110, 114, 94, 85, 71, 53, 42, 15, 0, 0, 0, 0, 0, 0, 0, 0, 0, 0, 0, 0, 0, 0, 0, 0, 0, 0, 0, 0, 0, 0, 0, 0, 0, 0, 0, 0, 0, 0, 0, 0, 0, 0, 0, 0, 0, 0, 0, 0, 0, 0, 0, 0, 0, 0, 0, 0, 0, 0, 0, 0, 0, 0, 0, 0, 0, 0, 0, 0
0, 0, 14, 0, 4, 5, 19, 27, 41, 64, 121, 98, 123, 150, 153, 226, 211, 216, 225, 275, 270, 241, 214, 252, 214, 247, 224, 216, 217, 217, 203, 214, 184, 134, 149, 137, 153, 115, 130, 112, 97, 76, 58, 60, 37, 23, 1, 0, 0, 0, 0, 0, 0, 0, 0, 0, 0, 0, 0, 0, 0, 0, 0, 0, 0, 0, 0, 0, 0, 0, 0, 0, 0, 0, 0, 0, 0, 0, 0, 0, 0, 0, 0, 0, 0, 0, 0, 0, 0, 0, 0, 0, 0, 0, 0, 0, 0, 0, 0, 0, 0, 0, 0, 0, 0, 0
0, 0, 15, 1, 3, 2, 15, 26, 34, 70, 111, 74, 121, 155, 173, 174, 184, 184, 214, 211, 242, 239, 239, 269, 243, 240, 239, 202, 234, 220, 229, 196, 176, 186, 133, 146, 119, 120, 105, 110, 81, 57, 70, 46, 34, 21, 2, 0, 0, 0, 0, 0, 0, 0, 0, 0, 0, 0, 0, 0, 0, 0, 0, 0, 0, 0, 0, 0, 0, 0, 0, 0, 0, 0, 0, 0, 0, 0, 0, 0, 0, 0, 0, 0, 0, 0, 0, 0, 0, 0, 0, 0, 0, 0, 0, 0, 0, 0, 0, 0, 0, 0, 0, 0, 0, 0
0, 0, 16, 4, 6, 9, 10, 27, 44, 46, 128, 102, 106, 132, 183, 208, 207, 193, 212, 225, 229, 236, 234, 243, 270, 224, 208, 261, 220, 221, 198, 183, 179, 180, 150, 149, 123, 130, 116, 113, 103, 89, 96, 66, 41, 20, 1, 0, 0, 0, 0, 0, 0, 0, 0, 0, 0, 0, 0, 0, 0, 0, 0, 0, 0, 0, 0, 0, 0, 0, 0, 0, 0, 0, 0, 0, 0, 0, 0, 0, 0, 0, 0, 0, 0, 0, 0, 0, 0, 0, 0, 0, 0, 0, 0, 0, 0, 0, 0, 0, 0, 0, 0, 0, 0, 0
0, 0, 17, 3, 7, 3, 12, 34, 49, 60, 111, 108, 122, 145, 164, 183, 222, 206, 213, 268, 269, 237, 236, 259, 220, 234, 225, 236, 231, 195, 212, 203, 185, 171, 172, 150, 148, 134, 90, 97, 97, 74, 73, 50, 45, 12, 1, 0, 0, 0, 0, 0, 0, 0, 0, 0, 0, 0, 0, 0, 0, 0, 0, 0, 0, 0, 0, 0, 0, 0, 0, 0, 0, 0, 0, 0, 0, 0, 0, 0, 0, 0, 0, 0, 0, 0, 0, 0, 0, 0, 0, 0, 0, 0, 0, 0, 0, 0, 0, 0, 0, 0, 0, 0, 0, 0
0, 0, 18, 2, 7, 3, 19, 25, 57, 59, 139, 92, 125, 131, 176, 199, 198, 196, 245, 250, 263, 260, 246, 203, 255, 239, 209, 253, 212, 215, 194, 194, 168, 155, 136, 156, 135, 144, 114, 109, 96, 90, 75, 66, 47, 15, 0, 0, 0, 0, 0, 0, 0, 0, 0, 0, 0, 0, 0, 0, 0, 0, 0, 0, 0, 0, 0, 0, 0, 0, 0, 0, 0, 0, 0, 0, 0, 0, 0, 0, 0, 0, 0, 0, 0, 0, 0, 0, 0, 0, 0, 0, 0, 0, 0, 0, 0, 0, 0, 0, 0, 0, 0, 0, 0, 0
0, 0, 19, 5, 6, 7, 16, 19, 57, 54, 105, 103, 109, 145, 163, 184, 240, 201, 213, 248, 265, 260, 221, 256, 279, 260, 254, 231, 193, 234, 172, 174, 215, 162, 168, 183, 118, 117, 114, 95, 96, 82, 62, 59, 32, 24, 0, 0, 0, 0, 0, 0, 0, 0, 0, 0, 0, 0, 0, 0, 0, 0, 0, 0, 0, 0, 0, 0, 0, 0, 0, 0, 0, 0, 0, 0, 0, 0, 0, 0, 0, 0, 0, 0, 0, 0, 0, 0, 0, 0, 0, 0, 0, 0, 0, 0, 0, 0, 0, 0, 0, 0, 0, 0, 0, 0
0, 0, 20, 4, 1, 7, 10, 27, 47, 54, 113, 93, 115, 159, 171, 193, 217, 241, 229, 262, 249, 244, 253, 257, 211, 256, 248, 242, 226, 206, 191, 197, 156, 198, 149, 141, 141, 147, 150, 81, 104, 85, 66, 45, 41, 20, 1, 0, 0, 0, 0, 0, 0, 0, 0, 0, 0, 0, 0, 0, 0, 0, 0, 0, 0, 0, 0, 0, 0, 0, 0, 0, 0, 0, 0, 0, 0, 0, 0, 0, 0, 0, 0, 0, 0, 0, 0, 0, 0, 0, 0, 0, 0, 0, 0, 0, 0, 0, 0, 0, 0, 0, 0, 0, 0, 0
0, 0, 21, 2, 5, 12, 8, 33, 43, 49, 104, 96, 124, 147, 185, 230, 205, 199, 229, 228, 259, 237, 261, 239, 278, 265, 256, 207, 221, 204, 213, 169, 174, 185, 138, 145, 128, 120, 112, 124, 93, 92, 72, 54, 31, 18, 3, 0, 0, 0, 0, 0, 0, 0, 0, 0, 0, 0, 0, 0, 0, 0, 0, 0, 0, 0, 0, 0, 0, 0, 0, 0, 0, 0, 0, 0, 0, 0, 0, 0, 0, 0, 0, 0, 0, 0, 0, 0, 0, 0, 0, 0, 0, 0, 0, 0, 0, 0, 0, 0, 0, 0, 0, 0, 0, 0
0, 0, 22, 1, 4, 6, 9, 38, 31, 53, 134, 96, 115, 149, 160, 220, 217, 193, 269, 223, 256, 255, 249, 227, 268, 218, 231, 236, 217, 195, 201, 185, 172, 169, 142, 133, 142, 142, 118, 92, 100, 69, 65, 48, 51, 18, 1, 0, 0, 0, 0, 0, 0, 0, 0, 0, 0, 0, 0, 0, 0, 0, 0, 0, 0, 0, 0, 0, 0, 0, 0, 0, 0, 0, 0, 0, 0, 0, 0, 0, 0, 0, 0, 0, 0, 0, 0, 0, 0, 0, 0, 0, 0, 0, 0, 0, 0, 0, 0, 0, 0, 0, 0, 0, 0, 0
0, 0, 23, 5, 4, 5, 15, 26, 42, 57, 100, 73, 120, 125, 182, 189, 210, 243, 194, 219, 210, 261, 287, 255, 249, 229, 222, 194, 203, 223, 171, 206, 184, 192, 173, 118, 144, 141, 141, 100, 92, 72, 74, 52, 38, 25, 2, 0, 0, 0, 0, 0, 0, 0, 0, 0, 0, 0, 0, 0, 0, 0, 0, 0, 0, 0, 0, 0, 0, 0, 0, 0, 0, 0, 0, 0, 0, 0, 0, 0, 0, 0, 0, 0, 0, 0, 0, 0, 0, 0, 0, 0, 0, 0, 0, 0, 0, 0, 0, 0, 0, 0, 0, 0, 0, 0
0, 0, 24, 5, 3, 7, 9, 20, 20, 46, 121, 94, 130, 135, 188, 201, 202, 198, 260, 236, 263, 266, 250, 277, 247, 242, 227, 218, 217, 192, 202, 184, 182, 162, 170, 140, 129, 127, 140, 105, 97, 80, 64, 51, 31, 23, 0, 0, 0, 0, 0, 0, 0, 0, 0, 0, 0, 0, 0, 0, 0, 0, 0, 0, 0, 0, 0, 0, 0, 0, 0, 0, 0, 0, 0, 0, 0, 0, 0, 0, 0, 0, 0, 0, 0, 0, 0, 0, 0, 0, 0, 0, 0, 0, 0, 0, 0, 0, 0, 0, 0, 0, 0, 0, 0, 0
0, 0, 25, 2, 2, 5, 15, 23, 41, 68, 114, 99, 115, 155, 183, 200, 189, 212, 234, 270, 245, 220, 268, 244, 236, 215, 232, 227, 201, 193, 201, 198, 181, 179, 164, 153, 126, 128, 109, 95, 72, 88, 71, 53, 43, 15, 3, 0, 0, 0, 0, 0, 0, 0, 0, 0, 0, 0, 0, 0, 0, 0, 0, 0, 0, 0, 0, 0, 0, 0, 0, 0, 0, 0, 0, 0, 0, 0, 0, 0, 0, 0, 0, 0, 0, 0, 0, 0, 0, 0, 0, 0, 0, 0, 0, 0, 0, 0, 0, 0, 0, 0, 0, 0, 0, 0
0, 0, 26, 0, 1, 5, 13, 32, 39, 77, 124, 105, 109, 144, 168, 192, 192, 224, 231, 255, 236, 269, 248, 242, 273, 226, 255, 234, 243, 215, 205, 204, 177, 188, 167, 138, 152, 124, 108, 102, 95, 76, 56, 57, 38, 17, 0, 0, 0, 0, 0, 0, 0, 0, 0, 0, 0, 0, 0, 0, 0, 0, 0, 0, 0, 0, 0, 0, 0, 0, 0, 0, 0, 0, 0, 0, 0, 0, 0, 0, 0, 0, 0, 0, 0, 0, 0, 0, 0, 0, 0, 0, 0, 0, 0, 0, 0, 0, 0, 0, 0, 0, 0, 0, 0, 0
0, 0, 27, 6, 5, 11, 15, 21, 37, 57, 131, 85, 105, 141, 148, 194, 215, 219, 223, 264, 230, 245, 272, 209, 253, 243, 257, 246, 252, 205, 198, 199, 203, 172, 143, 123, 129, 126, 114, 104, 100, 82, 57, 54, 42, 26, 0, 0, 0, 0, 0, 0, 0, 0, 0, 0, 0, 0, 0, 0, 0, 0, 0, 0, 0, 0, 0, 0, 0, 0, 0, 0, 0, 0, 0, 0, 0, 0, 0, 0, 0, 0, 0, 0, 0, 0, 0, 0, 0, 0, 0, 0, 0, 0, 0, 0, 0, 0, 0, 0, 0, 0, 0, 0, 0, 0
0, 0, 28, 0, 3, 7, 11, 29, 44, 51, 106, 89, 126, 123, 171, 188, 200, 202, 217, 240, 231, 266, 228, 261, 244, 224, 211, 212, 224, 191, 178, 197, 176, 159, 154, 139, 155, 120, 100, 100, 70, 78, 70, 38, 44, 22, 0, 0, 0, 0, 0, 0, 0, 0, 0, 0, 0, 0, 0, 0, 0, 0, 0, 0, 0, 0, 0, 0, 0, 0, 0, 0, 0, 0, 0, 0, 0, 0, 0, 0, 0, 0, 0, 0, 0, 0, 0, 0, 0, 0, 0, 0, 0, 0, 0, 0, 0, 0, 0, 0, 0, 0, 0, 0, 0, 0
0, 0, 29, 4, 7, 7, 19, 19, 38, 52, 140, 83, 105, 133, 190, 178, 232, 192, 237, 222, 232, 246, 256, 232, 243, 228, 232, 217, 202, 208, 200, 201, 166, 168, 158, 144, 125, 141, 87, 114, 78, 84, 59, 56, 33, 23, 0, 0, 0, 0, 0, 0, 0, 0, 0, 0, 0, 0, 0, 0, 0, 0, 0, 0, 0, 0, 0, 0, 0, 0, 0, 0, 0, 0, 0, 0, 0, 0, 0, 0, 0, 0, 0, 0, 0, 0, 0, 0, 0, 0, 0, 0, 0, 0, 0, 0, 0, 0, 0, 0, 0, 0, 0, 0, 0, 0
0, 0, 30, 5, 2, 9, 14, 26, 30, 61, 98, 90, 104, 153, 168, 221, 182, 198, 225, 263, 265, 288, 251, 260, 246, 236, 251, 252, 245, 201, 207, 173, 201, 184, 167, 153, 157, 126, 111, 99, 90, 73, 70, 46, 43, 18, 1, 0, 0, 0, 0, 0, 0, 0, 0, 0, 0, 0, 0, 0, 0, 0, 0, 0, 0, 0, 0, 0, 0, 0, 0, 0, 0, 0, 0, 0, 0, 0, 0, 0, 0, 0, 0, 0, 0, 0, 0, 0, 0, 0, 0, 0, 0, 0, 0, 0, 0, 0, 0, 0, 0, 0, 0, 0, 0, 0
0, 0, 31, 3, 4, 7, 17, 33, 41, 59, 94, 97, 126, 144, 183, 193, 207, 198, 204, 246, 229, 242, 241, 262, 227, 254, 259, 228, 228, 212, 189, 180, 151, 175, 145, 156, 140, 132, 93, 83, 98, 85, 60, 47, 32, 28, 2, 0, 0, 0, 0, 0, 0, 0, 0, 0, 0, 0, 0, 0, 0, 0, 0, 0, 0, 0, 0, 0, 0, 0, 0, 0, 0, 0, 0, 0, 0, 0, 0, 0, 0, 0, 0, 0, 0, 0, 0, 0, 0, 0, 0, 0, 0, 0, 0, 0, 0, 0, 0, 0, 0, 0, 0, 0, 0, 0
0, 0, 32, 0, 6, 6, 12, 16, 35, 68, 124, 97, 116, 126, 170, 177, 192, 209, 260, 299, 222, 231, 236, 228, 241, 248, 235, 240, 209, 217, 215, 197, 187, 160, 171, 140, 133, 139, 126, 106, 82, 79, 92, 59, 28, 19, 0, 0, 0, 0, 0, 0, 0, 0, 0, 0, 0, 0, 0, 0, 0, 0, 0, 0, 0, 0, 0, 0, 0, 0, 0, 0, 0, 0, 0, 0, 0, 0, 0, 0, 0, 0, 0, 0, 0, 0, 0, 0, 0, 0, 0, 0, 0, 0, 0, 0, 0, 0, 0, 0, 0, 0, 0, 0, 0, 0
0, 0, 33, 3, 1, 8, 24, 28, 35, 52, 125, 94, 114, 153, 144, 190, 186, 213, 223, 229, 249, 256, 245, 257, 263, 237, 220, 219, 228, 194, 208, 187, 173, 149, 147, 146, 151, 119, 97, 98, 79, 76, 47, 48, 65, 11, 4, 0, 0, 0, 0, 0, 0, 0, 0, 0, 0, 0, 0, 0, 0, 0, 0, 0, 0, 0, 0, 0, 0, 0, 0, 0, 0, 0, 0, 0, 0, 0, 0, 0, 0, 0, 0, 0, 0, 0, 0, 0, 0, 0, 0, 0, 0, 0, 0, 0, 0, 0, 0, 0, 0, 0, 0, 0, 0, 0
0, 0, 34, 3, 3, 5, 16, 30, 33, 53, 106, 115, 111, 144, 193, 189, 191, 192, 200, 271, 237, 211, 272, 247, 246, 231, 240, 239, 219, 217, 184, 184, 182, 159, 166, 143, 156, 135, 114, 83, 82, 72, 57, 47, 34, 25, 0, 0, 0, 0, 0, 0, 0, 0, 0, 0, 0, 0, 0, 0, 0, 0, 0, 0, 0, 0, 0, 0, 0, 0, 0, 0, 0, 0, 0, 0, 0, 0, 0, 0, 0, 0, 0, 0, 0, 0, 0, 0, 0, 0, 0, 0, 0, 0, 0, 0, 0, 0, 0, 0, 0, 0, 0, 0, 0, 0
0, 0, 35, 1, 3, 10, 23, 30, 42, 46, 128, 69, 130, 136, 152, 229, 215, 198, 219, 255, 241, 243, 248, 233, 234, 236, 238, 240, 222, 200, 196, 176, 196, 198, 170, 150, 145, 122, 124, 95, 90, 72, 60, 49, 43, 21, 1, 0, 0, 0, 0, 0, 0, 0, 0, 0, 0, 0, 0, 0, 0, 0, 0, 0, 0, 0, 0, 0, 0, 0, 0, 0, 0, 0, 0, 0, 0, 0, 0, 0, 0, 0, 0, 0, 0, 0, 0, 0, 0, 0, 0, 0, 0, 0, 0, 0, 0, 0, 0, 0, 0, 0, 0, 0, 0, 0
0, 0, 36, 2, 3, 9, 14, 25, 39, 53, 104, 102, 103, 153, 167, 176, 213, 222, 213, 240, 311, 207, 253, 256, 250, 220, 245, 203, 202, 220, 243, 193, 164, 181, 151, 148, 162, 115, 108, 114, 95, 76, 50, 48, 37, 18, 0, 0, 0, 0, 0, 0, 0, 0, 0, 0, 0, 0, 0, 0, 0, 0, 0, 0, 0, 0, 0, 0, 0, 0, 0, 0, 0, 0, 0, 0, 0, 0, 0, 0, 0, 0, 0, 0, 0, 0, 0, 0, 0, 0, 0, 0, 0, 0, 0, 0, 0, 0, 0, 0, 0, 0, 0, 0, 0, 0
0, 0, 37, 0, 5, 10, 8, 32, 35, 78, 123, 104, 110, 144, 175, 210, 195, 218, 232, 234, 240, 239, 235, 244, 266, 251, 258, 185, 219, 194, 214, 188, 188, 201, 148, 159, 153, 107, 129, 109, 102, 88, 74, 67, 26, 30, 0, 0, 0, 0, 0, 0, 0, 0, 0, 0, 0, 0, 0, 0, 0, 0, 0, 0, 0, 0, 0, 0, 0, 0, 0, 0, 0, 0, 0, 0, 0, 0, 0, 0, 0, 0, 0, 0, 0, 0, 0, 0, 0, 0, 0, 0, 0, 0, 0, 0, 0, 0, 0, 0, 0, 0, 0, 0, 0, 0
0, 0, 38, 6, 5, 8, 12, 19, 28, 64, 118, 90, 115, 142, 183, 192, 217, 215, 218, 243, 241, 266, 231, 253, 251, 220, 248, 208, 217, 195, 230, 180, 187, 152, 182, 141, 120, 102, 110, 119, 94, 78, 76, 70, 43, 20, 0, 0, 0, 0, 0, 0, 0, 0, 0, 0, 0, 0, 0, 0, 0, 0, 0, 0, 0, 0, 0, 0, 0, 0, 0, 0, 0, 0, 0, 0, 0, 0, 0, 0, 0, 0, 0, 0, 0, 0, 0, 0, 0, 0, 0, 0, 0, 0, 0, 0, 0, 0, 0, 0, 0, 0, 0, 0, 0, 0
0, 0, 39, 0, 5, 13, 14, 31, 42, 53, 116, 111, 103, 139, 190, 212, 199, 231, 208, 232, 258, 220, 240, 268, 234, 256, 218, 248, 248, 222, 195, 203, 174, 168, 165, 152, 145, 123, 121, 92, 92, 80, 55, 51, 37, 26, 4, 0, 0, 0, 0, 0, 0, 0, 0, 0, 0, 0, 0, 0, 0, 0, 0, 0, 0, 0, 0, 0, 0, 0, 0, 0, 0, 0, 0, 0, 0, 0, 0, 0, 0, 0, 0, 0, 0, 0, 0, 0, 0, 0, 0, 0, 0, 0, 0, 0, 0, 0, 0, 0, 0, 0, 0, 0, 0, 0
0, 0, 40, 3, 2, 6, 8, 18, 46, 58, 112, 81, 113, 130, 170, 223, 189, 247, 194, 273, 264, 236, 244, 239, 243, 244, 271, 196, 202, 203, 213, 187, 199, 168, 170, 167, 126, 132, 116, 108, 73, 83, 72, 47, 28, 25, 1, 0, 0, 0, 0, 0, 0, 0, 0, 0, 0, 0, 0, 0, 0, 0, 0, 0, 0, 0, 0, 0, 0, 0, 0, 0, 0, 0, 0, 0, 0, 0, 0, 0, 0, 0, 0, 0, 0, 0, 0, 0, 0, 0, 0, 0, 0, 0, 0, 0, 0, 0, 0, 0, 0, 0, 0, 0, 0, 0
0, 0, 41, 0, 3, 10, 17, 26, 35, 45, 85, 105, 125, 124, 159, 173, 185, 210, 228, 239, 231, 228, 236, 226, 241, 237, 204, 181, 211, 206, 155, 206, 154, 151, 176, 169, 134, 112, 126, 84, 73, 70, 51, 61, 45, 16, 1, 0, 0, 0, 0, 0, 0, 0, 0, 0, 0, 0, 0, 0, 0, 0, 0, 0, 0, 0, 0, 0, 0, 0, 0, 0, 0, 0, 0, 0, 0, 0, 0, 0, 0, 0, 0, 0, 0, 0, 0, 0, 0, 0, 0, 0, 0, 0, 0, 0, 0, 0, 0, 0, 0, 0, 0, 0, 0, 0
0, 0, 42, 1, 1, 6, 5, 18, 35, 49, 83, 76, 83, 108, 150, 143, 138, 154, 134, 196, 176, 171, 166, 215, 189, 187, 202, 169, 155, 164, 157, 128, 117, 131, 143, 116, 111, 111, 85, 80, 65, 69, 51, 38, 26, 14, 2, 0, 0, 0, 0, 0, 0, 0, 0, 0, 0, 0, 0, 0, 0, 0, 0, 0, 0, 0, 0, 0, 0, 0, 0, 0, 0, 0, 0, 0, 0, 0, 0, 0, 0, 0, 0, 0, 0, 0, 0, 0, 0, 0, 0, 0, 0, 0, 0, 0, 0, 0, 0, 0, 0, 0, 0, 0, 0, 0
0, 0, 43, 1, 0, 4, 9, 16, 18, 25, 51, 57, 69, 80, 113, 109, 106, 113, 147, 150, 106, 144, 141, 148, 140, 159, 138, 110, 121, 123, 118, 100, 117, 113, 84, 85, 78, 71, 90, 53, 55, 53, 44, 35, 42, 13, 1, 0, 0, 0, 0, 0, 0, 0, 0, 0, 0, 0, 0, 0, 0, 0, 0, 0, 0, 0, 0, 0, 0, 0, 0, 0, 0, 0, 0, 0, 0, 0, 0, 0, 0, 0, 0, 0, 0, 0, 0, 0, 0, 0, 0, 0, 0, 0, 0, 0, 0, 0, 0, 0, 0, 0, 0, 0, 0, 0
0, 0, 44, 0, 2, 3, 9, 12, 21, 25, 39, 27, 52, 60, 67, 85, 83, 82, 78, 95, 113, 107, 126, 124, 121, 119, 101, 102, 97, 101, 77, 84, 87, 90, 68, 55, 75, 69, 60, 56, 47, 40, 31, 25, 17, 12, 0, 0, 0, 0, 0, 0, 0, 0, 0, 0, 0, 0, 0, 0, 0, 0, 0, 0, 0, 0, 0, 0, 0, 0, 0, 0, 0, 0, 0, 0, 0, 0, 0, 0, 0, 0, 0, 0, 0, 0, 0, 0, 0, 0, 0, 0, 0, 0, 0, 0, 0, 0, 0, 0, 0, 0, 0, 0, 0, 0
0, 0, 45, 0, 2, 3, 4, 6, 14, 19, 31, 31, 28, 40, 56, 64, 58, 62, 58, 83, 111, 85, 60, 77, 67, 69, 75, 77, 62, 78, 86, 74, 69, 59, 72, 50, 46, 41, 33, 58, 31, 35, 29, 23, 20, 9, 0, 0, 0, 0, 0, 0, 0, 0, 0, 0, 0, 0, 0, 0, 0, 0, 0, 0, 0, 0, 0, 0, 0, 0, 0, 0, 0, 0, 0, 0, 0, 0, 0, 0, 0, 0, 0, 0, 0, 0, 0, 0, 0, 0, 0, 0, 0, 0, 0, 0, 0, 0, 0, 0, 0, 0, 0, 0, 0, 0
0, 0, 46, 0, 1, 1, 0, 4, 6, 12, 20, 20, 20, 30, 30, 41, 49, 39, 33, 39, 55, 57, 62, 61, 61, 66, 53, 57, 41, 75, 65, 47, 67, 57, 57, 44, 38, 38, 33, 35, 24, 19, 29, 14, 10, 9, 1, 0, 0, 0, 0, 0, 0, 0, 0, 0, 0, 0, 0, 0, 0, 0, 0, 0, 0, 0, 0, 0, 0, 0, 0, 0, 0, 0, 0, 0, 0, 0, 0, 0, 0, 0, 0, 0, 0, 0, 0, 0, 0, 0, 0, 0, 0, 0, 0, 0, 0, 0, 0, 0, 0, 0, 0, 0, 0, 0
0, 0, 47, 0, 0, 0, 1, 1, 5, 4, 14, 5, 13, 9, 24, 14, 31, 26, 24, 32, 41, 41, 41, 58, 39, 38, 37, 42, 36, 33, 40, 39, 48, 35, 39, 54, 36, 31, 32, 18, 21, 19, 6, 16, 8, 1, 0, 0, 0, 0, 0, 0, 0, 0, 0, 0, 0, 0, 0, 0, 0, 0, 0, 0, 0, 0, 0, 0, 0, 0, 0, 0, 0, 0, 0, 0, 0, 0, 0, 0, 0, 0, 0, 0, 0, 0, 0, 0, 0, 0, 0, 0, 0, 0, 0, 0, 0, 0, 0, 0, 0, 0, 0, 0, 0, 0
0, 0, 48, 5, 0, 0, 0, 1, 2, 3, 9, 12, 8, 10, 16, 8, 14, 15, 29, 20, 32, 30, 33, 37, 22, 41, 32, 30, 32, 32, 28, 44, 42, 37, 20, 30, 23, 22, 20, 16, 18, 27, 14, 14, 7, 4, 0, 0, 0, 0, 0, 0, 0, 0, 0, 0, 0, 0, 0, 0, 0, 0, 0, 0, 0, 0, 0, 0, 0, 0, 0, 0, 0, 0, 0, 0, 0, 0, 0, 0, 0, 0, 0, 0, 0, 0, 0, 0, 0, 0, 0, 0, 0, 0, 0, 0, 0, 0, 0, 0, 0, 0, 0, 0, 0, 0
0, 0, 49, 0, 0, 0, 1, 0, 1, 1, 2, 3, 0, 4, 4, 10, 9, 11, 19, 22, 29, 18, 16, 16, 21, 24, 25, 34, 27, 32, 25, 30, 30, 19, 24, 27, 13, 21, 14, 28, 18, 18, 15, 12, 5, 5, 0, 0, 0, 0, 0, 0, 0, 0, 0, 0, 0, 0, 0, 0, 0, 0, 0, 0, 0, 0, 0, 0, 0, 0, 0, 0, 0, 0, 0, 0, 0, 0, 0, 0, 0, 0, 0, 0, 0, 0, 0, 0, 0, 0, 0, 0, 0, 0, 0, 0, 0, 0, 0, 0, 0, 0, 0, 0, 0, 0
0, 0, 50, 0, 0, 0, 0, 1, 2, 1, 5, 0, 1, 5, 2, 7, 8, 15, 15, 23, 21, 17, 26, 26, 31, 37, 28, 22, 32, 30, 29, 30, 33, 26, 31, 29, 31, 24, 20, 15, 15, 11, 16, 19, 5, 7, 0, 0, 0, 0, 0, 0, 0, 0, 0, 0, 0, 0, 0, 0, 0, 0, 0, 0, 0, 0, 0, 0, 0, 0, 0, 0, 0, 0, 0, 0, 0, 0, 0, 0, 0, 0, 0, 0, 0, 0, 0, 0, 0, 0, 0, 0, 0, 0, 0, 0, 0, 0, 0, 0, 0, 0, 0, 0, 0, 0
0, 0, 51, 0, 0, 0, 0, 0, 0, 1, 6, 3, 9, 7, 10, 13, 15, 15, 17, 14, 32, 31, 37, 41, 35, 27, 29, 21, 26, 44, 31, 35, 29, 29, 29, 23, 22, 24, 20, 32, 12, 23, 18, 9, 10, 4, 1, 0, 0, 0, 0, 0, 0, 0, 0, 0, 0, 0, 0, 0, 0, 0, 0, 0, 0, 0, 0, 0, 0, 0, 0, 0, 0, 0, 0, 0, 0, 0, 0, 0, 0, 0, 0, 0, 0, 0, 0, 0, 0, 0, 0, 0, 0, 0, 0, 0, 0, 0, 0, 0, 0, 0, 0, 0, 0, 0
0, 0, 52, 1, 0, 0, 2, 4, 6, 8, 13, 8, 10, 19, 16, 35, 25, 33, 30, 36, 43, 31, 34, 54, 45, 35, 35, 40, 53, 38, 53, 41, 47, 37, 22, 31, 34, 26, 32, 18, 17, 22, 19, 14, 4, 4, 0, 0, 0, 0, 0, 0, 0, 0, 0, 0, 0, 0, 0, 0, 0, 0, 0, 0, 0, 0, 0, 0, 0, 0, 0, 0, 0, 0, 0, 0, 0, 0, 0, 0, 0, 0, 0, 0, 0, 0, 0, 0, 0, 0, 0, 0, 0, 0, 0, 0, 0, 0, 0, 0, 0, 0, 0, 0, 0, 0
0, 0, 53, 0, 1, 4, 4, 4, 4, 6, 19, 15, 30, 20, 36, 34, 41, 40, 55, 34, 74, 52, 59, 54, 72, 51, 71, 60, 41, 61, 50, 50, 43, 43, 44, 42, 53, 44, 46, 31, 22, 17, 19, 26, 11, 11, 0, 0, 0, 0, 0, 0, 0, 0, 0, 0, 0, 0, 0, 0, 0, 0, 0, 0, 0, 0, 0, 0, 0, 0, 0, 0, 0, 0, 0, 0, 0, 0, 0, 0, 0, 0, 0, 0, 0, 0, 0, 0, 0, 0, 0, 0, 0, 0, 0, 0, 0, 0, 0, 0, 0, 0, 0, 0, 0, 0
0, 0, 54, 2, 0, 2, 3, 3, 14, 18, 33, 30, 27, 49, 44, 62, 44, 76, 74, 88, 75, 84, 77, 79, 95, 84, 73, 94, 79, 90, 75, 64, 54, 57, 61, 55, 45, 47, 51, 41, 37, 28, 23, 18, 17, 7, 0, 0, 0, 0, 0, 0, 0, 0, 0, 0, 0, 0, 0, 0, 0, 0, 0, 0, 0, 0, 0, 0, 0, 0, 0, 0, 0, 0, 0, 0, 0, 0, 0, 0, 0, 0, 0, 0, 0, 0, 0, 0, 0, 0, 0, 0, 0, 0, 0, 0, 0, 0, 0, 0, 0, 0, 0, 0, 0, 0
0, 0, 55, 0, 2, 0, 4, 12, 20, 22, 59, 46, 40, 66, 69, 77, 76, 101, 118, 90, 119, 131, 106, 108, 123, 110, 108, 101, 106, 89, 87, 84, 82, 76, 82, 82, 75, 55, 54, 58, 50, 37, 31, 27, 24, 18, 0, 0, 0, 0, 0, 0, 0, 0, 0, 0, 0, 0, 0, 0, 0, 0, 0, 0, 0, 0, 0, 0, 0, 0, 0, 0, 0, 0, 0, 0, 0, 0, 0, 0, 0, 0, 0, 0, 0, 0, 0, 0, 0, 0, 0, 0, 0, 0, 0, 0, 0, 0, 0, 0, 0, 0, 0, 0, 0, 0
0, 0, 56, 0, 6, 5, 6, 5, 24, 17, 56, 50, 63, 58, 89, 111, 113, 96, 130, 157, 147, 132, 148, 139, 126, 143, 162, 133, 156, 111, 123, 84, 124, 105, 112, 86, 74, 83, 87, 53, 58, 50, 43, 43, 37, 15, 0, 0, 0, 0, 0, 0, 0, 0, 0, 0, 0, 0, 0, 0, 0, 0, 0, 0, 0, 0, 0, 0, 0, 0, 0, 0, 0, 0, 0, 0, 0, 0, 0, 0, 0, 0, 0, 0, 0, 0, 0, 0, 0, 0, 0, 0, 0, 0, 0, 0, 0, 0, 0, 0, 0, 0, 0, 0, 0, 0
0, 0, 57, 1, 4, 6, 11, 24, 33, 48, 84, 76, 80, 98, 128, 125, 147, 162, 130, 180, 173, 189, 229, 184, 174, 189, 183, 194, 175, 180, 165, 122, 124, 119, 114, 91, 111, 95, 94, 59, 76, 68, 61, 47, 33, 9, 1, 0, 0, 0, 0, 0, 0, 0, 0, 0, 0, 0, 0, 0, 0, 0, 0, 0, 0, 0, 0, 0, 0, 0, 0, 0, 0, 0, 0, 0, 0, 0, 0, 0, 0, 0, 0, 0, 0, 0, 0, 0, 0, 0, 0, 0, 0, 0, 0, 0, 0, 0, 0, 0, 0, 0, 0, 0, 0, 0
0, 0, 58, 1, 4, 5, 9, 21, 34, 50, 89, 85, 98, 126, 143, 201, 186, 213, 228, 240, 198, 232, 259, 218, 209, 196, 223, 184, 186, 192, 177, 181, 152, 160, 156, 140, 125, 112, 89, 88, 104, 63, 55, 51, 41, 15, 1, 0, 0, 0, 0, 0, 0, 0, 0, 0, 0, 0, 0, 0, 0, 0, 0, 0, 0, 0, 0, 0, 0, 0, 0, 0, 0, 0, 0, 0, 0, 0, 0, 0, 0, 0, 0, 0, 0, 0, 0, 0, 0, 0, 0, 0, 0, 0, 0, 0, 0, 0, 0, 0, 0, 0, 0, 0, 0, 0
0, 0, 59, 0, 3, 8, 13, 32, 43, 51, 110, 83, 112, 145, 163, 170, 210, 217, 215, 230, 280, 251, 237, 247, 224, 263, 238, 193, 235, 191, 187, 178, 172, 166, 147, 127, 134, 127, 136, 101, 83, 102, 70, 54, 48, 23, 1, 0, 0, 0, 0, 0, 0, 0, 0, 0, 0, 0, 0, 0, 0, 0, 0, 0, 0, 0, 0, 0, 0, 0, 0, 0, 0, 0, 0, 0, 0, 0, 0, 0, 0, 0, 0, 0, 0, 0, 0, 0, 0, 0, 0, 0, 0, 0, 0, 0, 0, 0, 0, 0, 0, 0, 0, 0, 0, 0
0, 0, 60, 4, 5, 6, 12, 20, 48, 52, 121, 73, 105, 147, 180, 159, 196, 238, 230, 256, 244, 244, 273, 250, 258, 234, 251, 217, 215, 215, 216, 212, 181, 155, 156, 140, 142, 143, 112, 98, 82, 68, 60, 53, 43, 28, 2, 0, 0, 0, 0, 0, 0, 0, 0, 0, 0, 0, 0, 0, 0, 0, 0, 0, 0, 0, 0, 0, 0, 0, 0, 0, 0, 0, 0, 0, 0, 0, 0, 0, 0, 0, 0, 0, 0, 0, 0, 0, 0, 0, 0, 0, 0, 0, 0, 0, 0, 0, 0, 0, 0, 0, 0, 0, 0, 0
0, 0, 61, 2, 4, 8, 20, 21, 47, 62, 120, 84, 105, 145, 190, 213, 172, 201, 245, 245, 268, 249, 220, 249, 258, 227, 201, 228, 222, 197, 189, 190, 175, 170, 147, 163, 148, 124, 117, 87, 112, 82, 77, 47, 51, 23, 1, 0, 0, 0, 0, 0, 0, 0, 0, 0, 0, 0, 0, 0, 0, 0, 0, 0, 0, 0, 0, 0, 0, 0, 0, 0, 0, 0, 0, 0, 0, 0, 0, 0, 0, 0, 0, 0, 0, 0, 0, 0, 0, 0, 0, 0, 0, 0, 0, 0, 0, 0, 0, 0, 0, 0, 0, 0, 0, 0
0, 0, 62, 2, 5, 11, 9, 27, 32, 65, 122, 101, 132, 122, 164, 197, 204, 231, 231, 232, 205, 233, 256, 225, 256, 229, 239, 235, 215, 195, 186, 149, 169, 155, 157, 159, 151, 129, 107, 91, 102, 84, 66, 47, 45, 19, 1, 0, 0, 0, 0, 0, 0, 0, 0, 0, 0, 0, 0, 0, 0, 0, 0, 0, 0, 0, 0, 0, 0, 0, 0, 0, 0, 0, 0, 0, 0, 0, 0, 0, 0, 0, 0, 0, 0, 0, 0, 0, 0, 0, 0, 0, 0, 0, 0, 0, 0, 0, 0, 0, 0, 0, 0, 0, 0, 0
0, 0, 63, 0, 2, 10, 11, 26, 39, 68, 116, 102, 115, 133, 200, 173, 170, 207, 208, 233, 260, 256, 272, 207, 209, 211, 254, 236, 213, 199, 215, 189, 167, 177, 163, 149, 118, 129, 98, 85, 98, 85, 62, 58, 42, 17, 2, 0, 0, 0, 0, 0, 0, 0, 0, 0, 0, 0, 0, 0, 0, 0, 0, 0, 0, 0, 0, 0, 0, 0, 0, 0, 0, 0, 0, 0, 0, 0, 0, 0, 0, 0, 0, 0, 0, 0, 0, 0, 0, 0, 0, 0, 0, 0, 0, 0, 0, 0, 0, 0, 0, 0, 0, 0, 0, 0
0, 0, 64, 1, 4, 3, 17, 21, 38, 55, 107, 93, 107, 142, 157, 208, 230, 194, 214, 220, 280, 235, 235, 262, 239, 261, 250, 220, 198, 195, 218, 185, 168, 195, 162, 153, 142, 124, 134, 103, 78, 74, 73, 61, 39, 23, 1, 0, 0, 0, 0, 0, 0, 0, 0, 0, 0, 0, 0, 0, 0, 0, 0, 0, 0, 0, 0, 0, 0, 0, 0, 0, 0, 0, 0, 0, 0, 0, 0, 0, 0, 0, 0, 0, 0, 0, 0, 0, 0, 0, 0, 0, 0, 0, 0, 0, 0, 0, 0, 0, 0, 0, 0, 0, 0, 0
0, 0, 65, 1, 5, 9, 13, 21, 38, 52, 115, 94, 105, 126, 166, 184, 187, 203, 237, 255, 232, 236, 271, 229, 242, 252, 214, 196, 227, 239, 184, 181, 192, 163, 148, 138, 138, 103, 110, 93, 100, 95, 60, 62, 57, 25, 2, 0, 0, 0, 0, 0, 0, 0, 0, 0, 0, 0, 0, 0, 0, 0, 0, 0, 0, 0, 0, 0, 0, 0, 0, 0, 0, 0, 0, 0, 0, 0, 0, 0, 0, 0, 0, 0, 0, 0, 0, 0, 0, 0, 0, 0, 0, 0, 0, 0, 0, 0, 0, 0, 0, 0, 0, 0, 0, 0
0, 0, 66, 3, 2, 7, 16, 22, 39, 63, 141, 93, 127, 132, 185, 210, 214, 217, 223, 260, 268, 228, 249, 254, 229, 243, 247, 240, 205, 173, 200, 166, 182, 179, 163, 142, 147, 125, 126, 105, 99, 68, 63, 50, 49, 19, 3, 0, 0, 0, 0, 0, 0, 0, 0, 0, 0, 0, 0, 0, 0, 0, 0, 0, 0, 0, 0, 0, 0, 0, 0, 0, 0, 0, 0, 0, 0, 0, 0, 0, 0, 0, 0, 0, 0, 0, 0, 0, 0, 0, 0, 0, 0, 0, 0, 0, 0, 0, 0, 0, 0, 0, 0, 0, 0, 0
0, 0, 67, 3, 2, 3, 12, 31, 38, 59, 119, 85, 102, 136, 183, 204, 216, 240, 244, 259, 232, 248, 226, 205, 228, 241, 246, 200, 236, 220, 218, 176, 193, 167, 151, 160, 144, 134, 136, 111, 98, 77, 61, 56, 45, 14, 3, 0, 0, 0, 0, 0, 0, 0, 0, 0, 0, 0, 0, 0, 0, 0, 0, 0, 0, 0, 0, 0, 0, 0, 0, 0, 0, 0, 0, 0, 0, 0, 0, 0, 0, 0, 0, 0, 0, 0, 0, 0, 0, 0, 0, 0, 0, 0, 0, 0, 0, 0, 0, 0, 0, 0, 0, 0, 0, 0
0, 0, 68, 3, 3, 5, 10, 25, 43, 59, 114, 79, 113, 133, 184, 215, 211, 227, 216, 245, 243, 262, 276, 265, 201, 233, 240, 243, 198, 203, 201, 202, 186, 179, 168, 160, 142, 117, 106, 99, 97, 78, 63, 51, 31, 19, 1, 0, 0, 0, 0, 0, 0, 0, 0, 0, 0, 0, 0, 0, 0, 0, 0, 0, 0, 0, 0, 0, 0, 0, 0, 0, 0, 0, 0, 0, 0, 0, 0, 0, 0, 0, 0, 0, 0, 0, 0, 0, 0, 0, 0, 0, 0, 0, 0, 0, 0, 0, 0, 0, 0, 0, 0, 0, 0, 0
0, 0, 69, 0, 1, 3, 16, 23, 52, 52, 119, 106, 122, 167, 167, 173, 198, 225, 234, 242, 256, 247, 232, 227, 267, 252, 244, 194, 239, 221, 213, 186, 194, 178, 147, 146, 135, 134, 107, 91, 104, 86, 65, 48, 39, 15, 1, 0, 0, 0, 0, 0, 0, 0, 0, 0, 0, 0, 0, 0, 0, 0, 0, 0, 0, 0, 0, 0, 0, 0, 0, 0, 0, 0, 0, 0, 0, 0, 0, 0, 0, 0, 0, 0, 0, 0, 0, 0, 0, 0, 0, 0, 0, 0, 0, 0, 0, 0, 0, 0, 0, 0, 0, 0, 0, 0
0, 0, 70, 3, 3, 5, 9, 24, 52, 49, 109, 94, 126, 146, 159, 215, 211, 210, 211, 241, 266, 233, 254, 246, 246, 222, 218, 218, 209, 229, 214, 173, 162, 157, 191, 121, 132, 119, 123, 115, 101, 82, 65, 52, 26, 17, 1, 0, 0, 0, 0, 0, 0, 0, 0, 0, 0, 0, 0, 0, 0, 0, 0, 0, 0, 0, 0, 0, 0, 0, 0, 0, 0, 0, 0, 0, 0, 0, 0, 0, 0, 0, 0, 0, 0, 0, 0, 0, 0, 0, 0, 0, 0, 0, 0, 0, 0, 0, 0, 0, 0, 0, 0, 0, 0, 0
0, 0, 71, 4, 7, 8, 18, 29, 44, 53, 120, 95, 102, 146, 167, 200, 209, 227, 227, 245, 239, 255, 261, 231, 225, 273, 231, 212, 214, 193, 178, 185, 178, 160, 166, 147, 143, 127, 122, 106, 88, 72, 59, 57, 42, 23, 2, 0, 0, 0, 0, 0, 0, 0, 0, 0, 0, 0, 0, 0, 0, 0, 0, 0, 0, 0, 0, 0, 0, 0, 0, 0, 0, 0, 0, 0, 0, 0, 0, 0, 0, 0, 0, 0, 0, 0, 0, 0, 0, 0, 0, 0, 0, 0, 0, 0, 0, 0, 0, 0, 0, 0, 0, 0, 0, 0
0, 0, 72, 6, 2, 7, 17, 28, 33, 50, 99, 91, 125, 141, 147, 212, 195, 229, 233, 253, 263, 276, 254, 263, 257, 271, 202, 205, 222, 219, 208, 197, 187, 168, 161, 140, 130, 134, 107, 119, 92, 67, 66, 56, 37, 30, 0, 0, 0, 0, 0, 0, 0, 0, 0, 0, 0, 0, 0, 0, 0, 0, 0, 0, 0, 0, 0, 0, 0, 0, 0, 0, 0, 0, 0, 0, 0, 0, 0, 0, 0, 0, 0, 0, 0, 0, 0, 0, 0, 0, 0, 0, 0, 0, 0, 0, 0, 0, 0, 0, 0, 0, 0, 0, 0, 0
0, 0, 73, 1, 3, 8, 10, 21, 40, 54, 126, 100, 105, 151, 155, 222, 193, 196, 228, 226, 243, 252, 271, 225, 228, 225, 255, 193, 181, 212, 196, 211, 201, 162, 186, 137, 154, 130, 105, 97, 89, 92, 75, 68, 32, 20, 1, 0, 0, 0, 0, 0, 0, 0, 0, 0, 0, 0, 0, 0, 0, 0, 0, 0, 0, 0, 0, 0, 0, 0, 0, 0, 0, 0, 0, 0, 0, 0, 0, 0, 0, 0, 0, 0, 0, 0, 0, 0, 0, 0, 0, 0, 0, 0, 0, 0, 0, 0, 0, 0, 0, 0, 0, 0, 0, 0
0, 0, 74, 9, 4, 9, 8, 26, 34, 60, 117, 96, 120, 142, 197, 195, 189, 208, 221, 233, 255, 251, 278, 260, 221, 209, 231, 228, 247, 219, 214, 189, 189, 161, 158, 156, 166, 131, 129, 99, 82, 78, 70, 62, 37, 25, 1, 0, 0, 0, 0, 0, 0, 0, 0, 0, 0, 0, 0, 0, 0, 0, 0, 0, 0, 0, 0, 0, 0, 0, 0, 0, 0, 0, 0, 0, 0, 0, 0, 0, 0, 0, 0, 0, 0, 0, 0, 0, 0, 0, 0, 0, 0, 0, 0, 0, 0, 0, 0, 0, 0, 0, 0, 0, 0, 0
0, 0, 75, 6, 5, 5, 16, 34, 30, 49, 125, 107, 119, 144, 169, 218, 190, 201, 186, 248, 248, 270, 244, 236, 237, 234, 251, 220, 233, 204, 212, 203, 169, 153, 143, 154, 160, 111, 118, 100, 96, 92, 63, 52, 35, 13, 1, 0, 0, 0, 0, 0, 0, 0, 0, 0, 0, 0, 0, 0, 0, 0, 0, 0, 0, 0, 0, 0, 0, 0, 0, 0, 0, 0, 0, 0, 0, 0, 0, 0, 0, 0, 0, 0, 0, 0, 0, 0, 0, 0, 0, 0, 0, 0, 0, 0, 0, 0, 0, 0, 0, 0, 0, 0, 0, 0
0, 0, 76, 4, 9, 7, 20, 28, 44, 48, 126, 83, 125, 145, 188, 192, 222, 208, 239, 227, 236, 251, 265, 251, 238, 240, 257, 192, 188, 226, 194, 176, 197, 164, 165, 149, 146, 117, 114, 83, 93, 66, 79, 52, 45, 20, 2, 0, 0, 0, 0, 0, 0, 0, 0, 0, 0, 0, 0, 0, 0, 0, 0, 0, 0, 0, 0, 0, 0, 0, 0, 0, 0, 0, 0, 0, 0, 0, 0, 0, 0, 0, 0, 0, 0, 0, 0, 0, 0, 0, 0, 0, 0, 0, 0, 0, 0, 0, 0, 0, 0, 0, 0, 0, 0, 0
0, 0, 77, 2, 7, 3, 11, 22, 35, 61, 112, 101, 110, 132, 167, 195, 171, 207, 231, 268, 233, 252, 257, 227, 267, 261, 209, 195, 245, 222, 184, 173, 172, 161, 159, 139, 142, 127, 100, 109, 96, 73, 73, 47, 40, 27, 0, 0, 0, 0, 0, 0, 0, 0, 0, 0, 0, 0, 0, 0, 0, 0, 0, 0, 0, 0, 0, 0, 0, 0, 0, 0, 0, 0, 0, 0, 0, 0, 0, 0, 0, 0, 0, 0, 0, 0, 0, 0, 0, 0, 0, 0, 0, 0, 0, 0, 0, 0, 0, 0, 0, 0, 0, 0, 0, 0
