# TOPAS Version: 3.1.p3
# Parameter File: REDLEN_small_phantom_mc_basic_3cm.txt
# Results for scorer PhantomDose
# Scored on surface: CdTeCrystal1/YPlusSurface
# X in 100 bins of 0.03332 cm
# Y in 1 bin  of 0.4 cm
# Z in 100 bins of 0.0375 cm
# SurfaceTrackCount : Sum   
# Binned by incident track energy in 100 bins of 0.00104 MeV from 0.016 MeV to 0.12 MeV
# First bin is underflow, next to last bin is overflow, last bin is for case of no incident track.
0, 0, 0, 0, 0, 0, 0, 0, 0, 0, 0, 1, 1, 1, 0, 2, 2, 1, 1, 4, 6, 0, 1, 4, 4, 1, 1, 3, 2, 2, 6, 0, 1, 2, 1, 0, 1, 1, 4, 0, 0, 1, 2, 0, 0, 0, 0, 0, 0, 0, 0, 0, 0, 0, 0, 0, 0, 0, 0, 0, 0, 0, 0, 0, 0, 0, 0, 0, 0, 0, 0, 0, 0, 0, 0, 0, 0, 0, 0, 0, 0, 0, 0, 0, 0, 0, 0, 0, 0, 0, 0, 0, 0, 0, 0, 0, 0, 0, 0, 0, 0, 0, 0, 0, 0, 0
0, 0, 1, 2, 0, 0, 0, 0, 0, 0, 2, 1, 2, 0, 4, 0, 2, 2, 2, 5, 4, 4, 4, 0, 4, 3, 3, 4, 3, 1, 5, 4, 4, 1, 2, 2, 1, 4, 2, 1, 2, 2, 0, 0, 0, 0, 0, 0, 0, 0, 0, 0, 0, 0, 0, 0, 0, 0, 0, 0, 0, 0, 0, 0, 0, 0, 0, 0, 0, 0, 0, 0, 0, 0, 0, 0, 0, 0, 0, 0, 0, 0, 0, 0, 0, 0, 0, 0, 0, 0, 0, 0, 0, 0, 0, 0, 0, 0, 0, 0, 0, 0, 0, 0, 0, 0
0, 0, 2, 0, 0, 0, 0, 0, 0, 1, 1, 1, 0, 1, 0, 4, 1, 2, 6, 5, 0, 2, 7, 0, 3, 4, 7, 0, 1, 8, 3, 3, 1, 1, 5, 0, 5, 1, 1, 1, 0, 0, 0, 0, 0, 1, 0, 0, 0, 0, 0, 0, 0, 0, 0, 0, 0, 0, 0, 0, 0, 0, 0, 0, 0, 0, 0, 0, 0, 0, 0, 0, 0, 0, 0, 0, 0, 0, 0, 0, 0, 0, 0, 0, 0, 0, 0, 0, 0, 0, 0, 0, 0, 0, 0, 0, 0, 0, 0, 0, 0, 0, 0, 0, 0, 0
0, 0, 3, 0, 0, 0, 0, 0, 0, 1, 1, 0, 1, 2, 2, 3, 0, 1, 3, 4, 4, 2, 8, 3, 3, 4, 6, 1, 6, 2, 5, 6, 4, 4, 1, 4, 0, 1, 3, 0, 1, 2, 2, 2, 0, 0, 0, 0, 0, 0, 0, 0, 0, 0, 0, 0, 0, 0, 0, 0, 0, 0, 0, 0, 0, 0, 0, 0, 0, 0, 0, 0, 0, 0, 0, 0, 0, 0, 0, 0, 0, 0, 0, 0, 0, 0, 0, 0, 0, 0, 0, 0, 0, 0, 0, 0, 0, 0, 0, 0, 0, 0, 0, 0, 0, 0
0, 0, 4, 0, 0, 0, 0, 0, 0, 0, 0, 0, 2, 1, 3, 0, 0, 1, 1, 1, 3, 1, 1, 7, 3, 1, 5, 2, 4, 2, 3, 2, 1, 0, 3, 4, 1, 1, 1, 1, 1, 1, 0, 1, 0, 0, 0, 0, 0, 0, 0, 0, 0, 0, 0, 0, 0, 0, 0, 0, 0, 0, 0, 0, 0, 0, 0, 0, 0, 0, 0, 0, 0, 0, 0, 0, 0, 0, 0, 0, 0, 0, 0, 0, 0, 0, 0, 0, 0, 0, 0, 0, 0, 0, 0, 0, 0, 0, 0, 0, 0, 0, 0, 0, 0, 0
0, 0, 5, 1, 1, 4, 4, 10, 14, 30, 63, 43, 54, 65, 71, 89, 76, 83, 105, 130, 120, 119, 94, 118, 100, 108, 106, 90, 99, 97, 86, 90, 99, 83, 58, 45, 65, 48, 48, 40, 43, 41, 27, 18, 17, 10, 0, 0, 0, 0, 0, 0, 0, 0, 0, 0, 0, 0, 0, 0, 0, 0, 0, 0, 0, 0, 0, 0, 0, 0, 0, 0, 0, 0, 0, 0, 0, 0, 0, 0, 0, 0, 0, 0, 0, 0, 0, 0, 0, 0, 0, 0, 0, 0, 0, 0, 0, 0, 0, 0, 0, 0, 0, 0, 0, 0
0, 0, 6, 1, 3, 9, 16, 19, 41, 59, 127, 98, 129, 165, 190, 211, 223, 232, 238, 240, 238, 254, 237, 229, 254, 232, 250, 235, 235, 170, 197, 174, 173, 193, 161, 161, 156, 136, 114, 115, 76, 72, 62, 44, 44, 22, 2, 0, 0, 0, 0, 0, 0, 0, 0, 0, 0, 0, 0, 0, 0, 0, 0, 0, 0, 0, 0, 0, 0, 0, 0, 0, 0, 0, 0, 0, 0, 0, 0, 0, 0, 0, 0, 0, 0, 0, 0, 0, 0, 0, 0, 0, 0, 0, 0, 0, 0, 0, 0, 0, 0, 0, 0, 0, 0, 0
0, 0, 7, 0, 4, 11, 21, 26, 43, 52, 118, 98, 125, 145, 181, 193, 210, 196, 206, 257, 260, 268, 247, 221, 243, 242, 233, 236, 215, 240, 186, 196, 189, 173, 157, 132, 128, 142, 104, 81, 92, 73, 75, 56, 35, 28, 1, 0, 0, 0, 0, 0, 0, 0, 0, 0, 0, 0, 0, 0, 0, 0, 0, 0, 0, 0, 0, 0, 0, 0, 0, 0, 0, 0, 0, 0, 0, 0, 0, 0, 0, 0, 0, 0, 0, 0, 0, 0, 0, 0, 0, 0, 0, 0, 0, 0, 0, 0, 0, 0, 0, 0, 0, 0, 0, 0
0, 0, 8, 0, 4, 8, 17, 26, 34, 55, 83, 88, 122, 156, 165, 194, 196, 225, 217, 229, 236, 250, 242, 248, 264, 285, 230, 200, 224, 231, 201, 174, 175, 172, 151, 150, 145, 96, 101, 89, 105, 100, 69, 48, 31, 16, 0, 0, 0, 0, 0, 0, 0, 0, 0, 0, 0, 0, 0, 0, 0, 0, 0, 0, 0, 0, 0, 0, 0, 0, 0, 0, 0, 0, 0, 0, 0, 0, 0, 0, 0, 0, 0, 0, 0, 0, 0, 0, 0, 0, 0, 0, 0, 0, 0, 0, 0, 0, 0, 0, 0, 0, 0, 0, 0, 0
0, 0, 9, 0, 0, 4, 8, 24, 34, 43, 108, 100, 121, 147, 173, 211, 177, 212, 234, 243, 216, 256, 224, 236, 255, 233, 247, 230, 213, 195, 182, 167, 188, 154, 153, 167, 131, 123, 105, 101, 94, 75, 69, 60, 39, 22, 0, 0, 0, 0, 0, 0, 0, 0, 0, 0, 0, 0, 0, 0, 0, 0, 0, 0, 0, 0, 0, 0, 0, 0, 0, 0, 0, 0, 0, 0, 0, 0, 0, 0, 0, 0, 0, 0, 0, 0, 0, 0, 0, 0, 0, 0, 0, 0, 0, 0, 0, 0, 0, 0, 0, 0, 0, 0, 0, 0
0, 0, 10, 4, 5, 6, 13, 31, 25, 49, 100, 80, 119, 149, 160, 200, 203, 184, 224, 262, 229, 250, 267, 265, 263, 254, 218, 225, 209, 196, 183, 179, 166, 188, 177, 148, 149, 126, 113, 96, 82, 73, 65, 47, 45, 22, 2, 0, 0, 0, 0, 0, 0, 0, 0, 0, 0, 0, 0, 0, 0, 0, 0, 0, 0, 0, 0, 0, 0, 0, 0, 0, 0, 0, 0, 0, 0, 0, 0, 0, 0, 0, 0, 0, 0, 0, 0, 0, 0, 0, 0, 0, 0, 0, 0, 0, 0, 0, 0, 0, 0, 0, 0, 0, 0, 0
0, 0, 11, 2, 3, 11, 15, 36, 35, 60, 135, 102, 108, 129, 184, 193, 198, 227, 219, 275, 272, 278, 246, 251, 264, 273, 239, 217, 217, 217, 203, 182, 192, 159, 158, 140, 147, 114, 103, 113, 97, 74, 69, 56, 35, 14, 1, 0, 0, 0, 0, 0, 0, 0, 0, 0, 0, 0, 0, 0, 0, 0, 0, 0, 0, 0, 0, 0, 0, 0, 0, 0, 0, 0, 0, 0, 0, 0, 0, 0, 0, 0, 0, 0, 0, 0, 0, 0, 0, 0, 0, 0, 0, 0, 0, 0, 0, 0, 0, 0, 0, 0, 0, 0, 0, 0
0, 0, 12, 2, 2, 8, 22, 26, 47, 54, 127, 90, 118, 159, 183, 193, 191, 230, 246, 198, 241, 245, 238, 266, 245, 250, 228, 217, 199, 249, 194, 177, 154, 156, 134, 158, 110, 134, 117, 92, 82, 89, 61, 71, 36, 19, 0, 0, 0, 0, 0, 0, 0, 0, 0, 0, 0, 0, 0, 0, 0, 0, 0, 0, 0, 0, 0, 0, 0, 0, 0, 0, 0, 0, 0, 0, 0, 0, 0, 0, 0, 0, 0, 0, 0, 0, 0, 0, 0, 0, 0, 0, 0, 0, 0, 0, 0, 0, 0, 0, 0, 0, 0, 0, 0, 0
0, 0, 13, 5, 5, 7, 10, 23, 29, 48, 92, 73, 121, 138, 186, 191, 231, 221, 228, 286, 258, 238, 274, 221, 267, 185, 248, 223, 225, 177, 214, 181, 167, 165, 153, 152, 119, 145, 131, 103, 103, 75, 58, 57, 45, 20, 2, 0, 0, 0, 0, 0, 0, 0, 0, 0, 0, 0, 0, 0, 0, 0, 0, 0, 0, 0, 0, 0, 0, 0, 0, 0, 0, 0, 0, 0, 0, 0, 0, 0, 0, 0, 0, 0, 0, 0, 0, 0, 0, 0, 0, 0, 0, 0, 0, 0, 0, 0, 0, 0, 0, 0, 0, 0, 0, 0
0, 0, 14, 5, 2, 13, 11, 24, 40, 54, 107, 87, 107, 140, 182, 213, 200, 213, 243, 275, 248, 259, 256, 218, 260, 253, 236, 198, 214, 230, 177, 183, 152, 168, 180, 150, 169, 110, 113, 87, 101, 70, 71, 41, 55, 19, 1, 0, 0, 0, 0, 0, 0, 0, 0, 0, 0, 0, 0, 0, 0, 0, 0, 0, 0, 0, 0, 0, 0, 0, 0, 0, 0, 0, 0, 0, 0, 0, 0, 0, 0, 0, 0, 0, 0, 0, 0, 0, 0, 0, 0, 0, 0, 0, 0, 0, 0, 0, 0, 0, 0, 0, 0, 0, 0, 0
0, 0, 15, 3, 3, 7, 13, 39, 38, 52, 112, 92, 107, 145, 166, 200, 184, 203, 203, 294, 225, 244, 241, 273, 245, 205, 243, 197, 221, 210, 217, 204, 168, 185, 182, 164, 126, 141, 143, 104, 94, 81, 80, 61, 42, 26, 1, 0, 0, 0, 0, 0, 0, 0, 0, 0, 0, 0, 0, 0, 0, 0, 0, 0, 0, 0, 0, 0, 0, 0, 0, 0, 0, 0, 0, 0, 0, 0, 0, 0, 0, 0, 0, 0, 0, 0, 0, 0, 0, 0, 0, 0, 0, 0, 0, 0, 0, 0, 0, 0, 0, 0, 0, 0, 0, 0
0, 0, 16, 8, 3, 10, 9, 23, 43, 42, 125, 107, 121, 150, 160, 177, 187, 223, 210, 253, 255, 270, 242, 242, 257, 233, 214, 237, 232, 192, 212, 192, 163, 149, 170, 153, 108, 105, 84, 134, 96, 59, 66, 54, 40, 13, 0, 0, 0, 0, 0, 0, 0, 0, 0, 0, 0, 0, 0, 0, 0, 0, 0, 0, 0, 0, 0, 0, 0, 0, 0, 0, 0, 0, 0, 0, 0, 0, 0, 0, 0, 0, 0, 0, 0, 0, 0, 0, 0, 0, 0, 0, 0, 0, 0, 0, 0, 0, 0, 0, 0, 0, 0, 0, 0, 0
0, 0, 17, 6, 1, 11, 18, 22, 51, 60, 136, 106, 129, 156, 163, 194, 180, 245, 231, 256, 249, 228, 249, 242, 235, 248, 235, 207, 228, 214, 204, 198, 181, 176, 169, 170, 133, 126, 127, 97, 81, 92, 70, 56, 44, 21, 2, 0, 0, 0, 0, 0, 0, 0, 0, 0, 0, 0, 0, 0, 0, 0, 0, 0, 0, 0, 0, 0, 0, 0, 0, 0, 0, 0, 0, 0, 0, 0, 0, 0, 0, 0, 0, 0, 0, 0, 0, 0, 0, 0, 0, 0, 0, 0, 0, 0, 0, 0, 0, 0, 0, 0, 0, 0, 0, 0
0, 0, 18, 5, 9, 8, 10, 20, 36, 69, 113, 98, 119, 168, 158, 200, 207, 193, 224, 225, 269, 247, 253, 259, 258, 235, 239, 223, 234, 244, 195, 203, 201, 181, 150, 156, 124, 110, 135, 98, 104, 75, 60, 65, 44, 15, 2, 0, 0, 0, 0, 0, 0, 0, 0, 0, 0, 0, 0, 0, 0, 0, 0, 0, 0, 0, 0, 0, 0, 0, 0, 0, 0, 0, 0, 0, 0, 0, 0, 0, 0, 0, 0, 0, 0, 0, 0, 0, 0, 0, 0, 0, 0, 0, 0, 0, 0, 0, 0, 0, 0, 0, 0, 0, 0, 0
0, 0, 19, 3, 5, 13, 12, 18, 54, 55, 112, 88, 106, 136, 173, 215, 179, 227, 212, 220, 237, 226, 274, 246, 235, 240, 218, 209, 203, 231, 223, 190, 193, 213, 134, 138, 165, 143, 128, 124, 95, 92, 69, 60, 52, 18, 1, 0, 0, 0, 0, 0, 0, 0, 0, 0, 0, 0, 0, 0, 0, 0, 0, 0, 0, 0, 0, 0, 0, 0, 0, 0, 0, 0, 0, 0, 0, 0, 0, 0, 0, 0, 0, 0, 0, 0, 0, 0, 0, 0, 0, 0, 0, 0, 0, 0, 0, 0, 0, 0, 0, 0, 0, 0, 0, 0
0, 0, 20, 0, 2, 13, 13, 17, 40, 52, 134, 106, 122, 144, 172, 212, 191, 193, 215, 247, 247, 219, 252, 264, 237, 226, 213, 214, 242, 193, 199, 186, 196, 157, 156, 145, 145, 133, 119, 111, 102, 100, 62, 46, 34, 25, 1, 0, 0, 0, 0, 0, 0, 0, 0, 0, 0, 0, 0, 0, 0, 0, 0, 0, 0, 0, 0, 0, 0, 0, 0, 0, 0, 0, 0, 0, 0, 0, 0, 0, 0, 0, 0, 0, 0, 0, 0, 0, 0, 0, 0, 0, 0, 0, 0, 0, 0, 0, 0, 0, 0, 0, 0, 0, 0, 0
0, 0, 21, 3, 1, 6, 11, 28, 35, 49, 111, 97, 118, 140, 175, 185, 214, 223, 228, 250, 253, 232, 253, 237, 281, 220, 233, 259, 213, 184, 193, 181, 181, 159, 155, 147, 138, 109, 119, 104, 81, 83, 78, 48, 50, 16, 0, 0, 0, 0, 0, 0, 0, 0, 0, 0, 0, 0, 0, 0, 0, 0, 0, 0, 0, 0, 0, 0, 0, 0, 0, 0, 0, 0, 0, 0, 0, 0, 0, 0, 0, 0, 0, 0, 0, 0, 0, 0, 0, 0, 0, 0, 0, 0, 0, 0, 0, 0, 0, 0, 0, 0, 0, 0, 0, 0
0, 0, 22, 3, 4, 8, 14, 23, 48, 57, 126, 89, 103, 147, 177, 241, 215, 237, 232, 246, 266, 262, 253, 250, 248, 236, 216, 223, 225, 190, 192, 190, 186, 189, 141, 149, 163, 113, 110, 91, 88, 78, 59, 50, 31, 33, 0, 0, 0, 0, 0, 0, 0, 0, 0, 0, 0, 0, 0, 0, 0, 0, 0, 0, 0, 0, 0, 0, 0, 0, 0, 0, 0, 0, 0, 0, 0, 0, 0, 0, 0, 0, 0, 0, 0, 0, 0, 0, 0, 0, 0, 0, 0, 0, 0, 0, 0, 0, 0, 0, 0, 0, 0, 0, 0, 0
0, 0, 23, 10, 4, 5, 18, 25, 42, 47, 107, 91, 107, 139, 190, 216, 218, 233, 243, 214, 263, 247, 239, 246, 241, 229, 209, 220, 217, 195, 178, 181, 161, 178, 128, 149, 156, 125, 98, 114, 96, 68, 63, 36, 35, 22, 0, 0, 0, 0, 0, 0, 0, 0, 0, 0, 0, 0, 0, 0, 0, 0, 0, 0, 0, 0, 0, 0, 0, 0, 0, 0, 0, 0, 0, 0, 0, 0, 0, 0, 0, 0, 0, 0, 0, 0, 0, 0, 0, 0, 0, 0, 0, 0, 0, 0, 0, 0, 0, 0, 0, 0, 0, 0, 0, 0
0, 0, 24, 3, 1, 7, 16, 28, 36, 68, 127, 103, 123, 127, 158, 203, 192, 195, 248, 218, 248, 256, 244, 256, 244, 209, 205, 201, 224, 194, 187, 196, 169, 158, 148, 155, 128, 127, 108, 103, 82, 71, 67, 57, 33, 22, 2, 0, 0, 0, 0, 0, 0, 0, 0, 0, 0, 0, 0, 0, 0, 0, 0, 0, 0, 0, 0, 0, 0, 0, 0, 0, 0, 0, 0, 0, 0, 0, 0, 0, 0, 0, 0, 0, 0, 0, 0, 0, 0, 0, 0, 0, 0, 0, 0, 0, 0, 0, 0, 0, 0, 0, 0, 0, 0, 0
0, 0, 25, 0, 5, 7, 11, 28, 34, 46, 110, 114, 120, 164, 199, 203, 191, 192, 234, 243, 222, 241, 272, 231, 218, 230, 240, 222, 203, 173, 214, 195, 143, 158, 158, 151, 143, 123, 124, 114, 89, 85, 80, 54, 56, 14, 1, 0, 0, 0, 0, 0, 0, 0, 0, 0, 0, 0, 0, 0, 0, 0, 0, 0, 0, 0, 0, 0, 0, 0, 0, 0, 0, 0, 0, 0, 0, 0, 0, 0, 0, 0, 0, 0, 0, 0, 0, 0, 0, 0, 0, 0, 0, 0, 0, 0, 0, 0, 0, 0, 0, 0, 0, 0, 0, 0
0, 0, 26, 2, 0, 11, 14, 29, 40, 47, 122, 103, 115, 142, 181, 209, 203, 207, 254, 223, 274, 263, 222, 244, 219, 236, 245, 218, 238, 210, 193, 196, 176, 170, 153, 140, 122, 139, 103, 100, 88, 69, 69, 55, 32, 23, 1, 0, 0, 0, 0, 0, 0, 0, 0, 0, 0, 0, 0, 0, 0, 0, 0, 0, 0, 0, 0, 0, 0, 0, 0, 0, 0, 0, 0, 0, 0, 0, 0, 0, 0, 0, 0, 0, 0, 0, 0, 0, 0, 0, 0, 0, 0, 0, 0, 0, 0, 0, 0, 0, 0, 0, 0, 0, 0, 0
0, 0, 27, 3, 2, 8, 9, 21, 39, 63, 126, 109, 120, 144, 159, 214, 239, 214, 230, 260, 250, 254, 259, 237, 234, 210, 227, 231, 202, 217, 189, 193, 185, 174, 135, 147, 159, 139, 113, 119, 62, 63, 81, 66, 32, 28, 3, 0, 0, 0, 0, 0, 0, 0, 0, 0, 0, 0, 0, 0, 0, 0, 0, 0, 0, 0, 0, 0, 0, 0, 0, 0, 0, 0, 0, 0, 0, 0, 0, 0, 0, 0, 0, 0, 0, 0, 0, 0, 0, 0, 0, 0, 0, 0, 0, 0, 0, 0, 0, 0, 0, 0, 0, 0, 0, 0
0, 0, 28, 1, 2, 8, 17, 24, 33, 52, 114, 100, 107, 135, 178, 198, 212, 216, 230, 258, 221, 257, 236, 272, 264, 232, 218, 239, 206, 239, 215, 196, 185, 163, 160, 158, 137, 122, 116, 103, 90, 74, 64, 46, 35, 18, 3, 0, 0, 0, 0, 0, 0, 0, 0, 0, 0, 0, 0, 0, 0, 0, 0, 0, 0, 0, 0, 0, 0, 0, 0, 0, 0, 0, 0, 0, 0, 0, 0, 0, 0, 0, 0, 0, 0, 0, 0, 0, 0, 0, 0, 0, 0, 0, 0, 0, 0, 0, 0, 0, 0, 0, 0, 0, 0, 0
0, 0, 29, 1, 0, 7, 16, 23, 32, 47, 105, 88, 142, 137, 193, 195, 188, 213, 203, 259, 231, 252, 239, 261, 225, 206, 219, 209, 209, 224, 227, 188, 170, 172, 159, 146, 125, 145, 116, 108, 99, 71, 66, 59, 34, 18, 2, 0, 0, 0, 0, 0, 0, 0, 0, 0, 0, 0, 0, 0, 0, 0, 0, 0, 0, 0, 0, 0, 0, 0, 0, 0, 0, 0, 0, 0, 0, 0, 0, 0, 0, 0, 0, 0, 0, 0, 0, 0, 0, 0, 0, 0, 0, 0, 0, 0, 0, 0, 0, 0, 0, 0, 0, 0, 0, 0
0, 0, 30, 3, 2, 11, 18, 34, 48, 51, 128, 88, 110, 132, 159, 180, 211, 221, 214, 241, 249, 292, 268, 231, 249, 223, 257, 218, 215, 207, 188, 198, 191, 180, 163, 147, 130, 141, 113, 114, 77, 71, 61, 55, 44, 21, 0, 0, 0, 0, 0, 0, 0, 0, 0, 0, 0, 0, 0, 0, 0, 0, 0, 0, 0, 0, 0, 0, 0, 0, 0, 0, 0, 0, 0, 0, 0, 0, 0, 0, 0, 0, 0, 0, 0, 0, 0, 0, 0, 0, 0, 0, 0, 0, 0, 0, 0, 0, 0, 0, 0, 0, 0, 0, 0, 0
0, 0, 31, 1, 2, 11, 16, 27, 45, 63, 124, 96, 99, 137, 161, 216, 199, 198, 237, 267, 268, 258, 238, 232, 240, 231, 224, 214, 203, 217, 167, 189, 178, 198, 142, 156, 142, 130, 118, 113, 78, 79, 74, 72, 44, 20, 1, 0, 0, 0, 0, 0, 0, 0, 0, 0, 0, 0, 0, 0, 0, 0, 0, 0, 0, 0, 0, 0, 0, 0, 0, 0, 0, 0, 0, 0, 0, 0, 0, 0, 0, 0, 0, 0, 0, 0, 0, 0, 0, 0, 0, 0, 0, 0, 0, 0, 0, 0, 0, 0, 0, 0, 0, 0, 0, 0
0, 0, 32, 4, 5, 3, 22, 35, 33, 62, 114, 95, 112, 164, 171, 178, 173, 204, 250, 235, 259, 235, 264, 261, 221, 242, 222, 205, 201, 202, 190, 191, 185, 155, 147, 140, 112, 110, 116, 126, 75, 98, 73, 50, 40, 19, 0, 0, 0, 0, 0, 0, 0, 0, 0, 0, 0, 0, 0, 0, 0, 0, 0, 0, 0, 0, 0, 0, 0, 0, 0, 0, 0, 0, 0, 0, 0, 0, 0, 0, 0, 0, 0, 0, 0, 0, 0, 0, 0, 0, 0, 0, 0, 0, 0, 0, 0, 0, 0, 0, 0, 0, 0, 0, 0, 0
0, 0, 33, 0, 0, 8, 12, 28, 31, 49, 143, 97, 107, 180, 166, 196, 193, 239, 216, 225, 200, 220, 249, 247, 249, 235, 243, 224, 207, 238, 162, 158, 168, 169, 155, 159, 130, 119, 122, 102, 95, 79, 66, 58, 32, 16, 1, 0, 0, 0, 0, 0, 0, 0, 0, 0, 0, 0, 0, 0, 0, 0, 0, 0, 0, 0, 0, 0, 0, 0, 0, 0, 0, 0, 0, 0, 0, 0, 0, 0, 0, 0, 0, 0, 0, 0, 0, 0, 0, 0, 0, 0, 0, 0, 0, 0, 0, 0, 0, 0, 0, 0, 0, 0, 0, 0
0, 0, 34, 1, 2, 8, 16, 34, 39, 58, 116, 87, 131, 142, 187, 207, 196, 218, 207, 234, 234, 224, 280, 218, 243, 239, 234, 212, 188, 214, 197, 192, 159, 185, 155, 128, 146, 133, 106, 98, 110, 89, 64, 56, 50, 23, 0, 0, 0, 0, 0, 0, 0, 0, 0, 0, 0, 0, 0, 0, 0, 0, 0, 0, 0, 0, 0, 0, 0, 0, 0, 0, 0, 0, 0, 0, 0, 0, 0, 0, 0, 0, 0, 0, 0, 0, 0, 0, 0, 0, 0, 0, 0, 0, 0, 0, 0, 0, 0, 0, 0, 0, 0, 0, 0, 0
0, 0, 35, 1, 5, 9, 16, 23, 39, 49, 134, 85, 136, 146, 172, 179, 215, 223, 228, 241, 221, 246, 249, 231, 253, 241, 203, 248, 220, 193, 188, 202, 170, 169, 160, 159, 132, 137, 106, 102, 86, 81, 65, 44, 41, 17, 2, 0, 0, 0, 0, 0, 0, 0, 0, 0, 0, 0, 0, 0, 0, 0, 0, 0, 0, 0, 0, 0, 0, 0, 0, 0, 0, 0, 0, 0, 0, 0, 0, 0, 0, 0, 0, 0, 0, 0, 0, 0, 0, 0, 0, 0, 0, 0, 0, 0, 0, 0, 0, 0, 0, 0, 0, 0, 0, 0
0, 0, 36, 4, 1, 8, 16, 29, 37, 50, 122, 82, 128, 151, 180, 169, 209, 184, 237, 259, 220, 240, 227, 236, 252, 257, 238, 224, 248, 208, 186, 185, 182, 174, 151, 146, 140, 141, 105, 105, 103, 73, 60, 59, 32, 17, 1, 0, 0, 0, 0, 0, 0, 0, 0, 0, 0, 0, 0, 0, 0, 0, 0, 0, 0, 0, 0, 0, 0, 0, 0, 0, 0, 0, 0, 0, 0, 0, 0, 0, 0, 0, 0, 0, 0, 0, 0, 0, 0, 0, 0, 0, 0, 0, 0, 0, 0, 0, 0, 0, 0, 0, 0, 0, 0, 0
0, 0, 37, 4, 1, 8, 12, 36, 41, 58, 105, 97, 114, 150, 159, 176, 199, 198, 220, 204, 246, 268, 252, 259, 213, 227, 241, 251, 215, 221, 216, 199, 146, 150, 142, 131, 139, 117, 124, 114, 94, 76, 61, 57, 40, 21, 2, 0, 0, 0, 0, 0, 0, 0, 0, 0, 0, 0, 0, 0, 0, 0, 0, 0, 0, 0, 0, 0, 0, 0, 0, 0, 0, 0, 0, 0, 0, 0, 0, 0, 0, 0, 0, 0, 0, 0, 0, 0, 0, 0, 0, 0, 0, 0, 0, 0, 0, 0, 0, 0, 0, 0, 0, 0, 0, 0
0, 0, 38, 1, 4, 7, 14, 12, 43, 50, 119, 89, 118, 135, 197, 172, 194, 217, 255, 227, 242, 239, 257, 252, 248, 274, 243, 220, 212, 205, 198, 224, 198, 148, 165, 163, 123, 125, 107, 104, 93, 92, 62, 54, 46, 26, 1, 0, 0, 0, 0, 0, 0, 0, 0, 0, 0, 0, 0, 0, 0, 0, 0, 0, 0, 0, 0, 0, 0, 0, 0, 0, 0, 0, 0, 0, 0, 0, 0, 0, 0, 0, 0, 0, 0, 0, 0, 0, 0, 0, 0, 0, 0, 0, 0, 0, 0, 0, 0, 0, 0, 0, 0, 0, 0, 0
0, 0, 39, 2, 4, 6, 14, 32, 41, 62, 95, 99, 117, 125, 167, 228, 205, 233, 243, 256, 276, 229, 239, 266, 244, 209, 257, 214, 211, 236, 222, 197, 187, 165, 153, 141, 127, 130, 120, 112, 90, 86, 47, 54, 45, 19, 3, 0, 0, 0, 0, 0, 0, 0, 0, 0, 0, 0, 0, 0, 0, 0, 0, 0, 0, 0, 0, 0, 0, 0, 0, 0, 0, 0, 0, 0, 0, 0, 0, 0, 0, 0, 0, 0, 0, 0, 0, 0, 0, 0, 0, 0, 0, 0, 0, 0, 0, 0, 0, 0, 0, 0, 0, 0, 0, 0
0, 0, 40, 5, 4, 6, 18, 29, 36, 79, 99, 77, 124, 154, 143, 211, 217, 209, 228, 248, 249, 256, 262, 273, 233, 267, 225, 240, 238, 224, 205, 195, 171, 182, 159, 152, 163, 121, 117, 103, 108, 86, 72, 56, 45, 30, 4, 0, 0, 0, 0, 0, 0, 0, 0, 0, 0, 0, 0, 0, 0, 0, 0, 0, 0, 0, 0, 0, 0, 0, 0, 0, 0, 0, 0, 0, 0, 0, 0, 0, 0, 0, 0, 0, 0, 0, 0, 0, 0, 0, 0, 0, 0, 0, 0, 0, 0, 0, 0, 0, 0, 0, 0, 0, 0, 0
0, 0, 41, 4, 3, 8, 10, 20, 41, 66, 96, 88, 99, 125, 171, 218, 165, 212, 216, 243, 231, 228, 248, 248, 216, 230, 212, 215, 198, 180, 185, 159, 172, 180, 132, 123, 140, 117, 105, 71, 91, 68, 67, 63, 45, 15, 0, 0, 0, 0, 0, 0, 0, 0, 0, 0, 0, 0, 0, 0, 0, 0, 0, 0, 0, 0, 0, 0, 0, 0, 0, 0, 0, 0, 0, 0, 0, 0, 0, 0, 0, 0, 0, 0, 0, 0, 0, 0, 0, 0, 0, 0, 0, 0, 0, 0, 0, 0, 0, 0, 0, 0, 0, 0, 0, 0
0, 0, 42, 0, 0, 8, 12, 18, 31, 45, 68, 77, 89, 108, 142, 140, 159, 166, 148, 208, 198, 184, 190, 169, 209, 205, 178, 144, 168, 175, 147, 164, 145, 139, 140, 108, 121, 91, 88, 83, 89, 51, 55, 42, 28, 15, 2, 0, 0, 0, 0, 0, 0, 0, 0, 0, 0, 0, 0, 0, 0, 0, 0, 0, 0, 0, 0, 0, 0, 0, 0, 0, 0, 0, 0, 0, 0, 0, 0, 0, 0, 0, 0, 0, 0, 0, 0, 0, 0, 0, 0, 0, 0, 0, 0, 0, 0, 0, 0, 0, 0, 0, 0, 0, 0, 0
0, 0, 43, 3, 0, 5, 6, 9, 18, 36, 68, 52, 54, 84, 95, 130, 128, 123, 140, 171, 172, 160, 157, 124, 167, 152, 169, 141, 143, 120, 125, 101, 134, 131, 110, 104, 114, 73, 83, 76, 68, 59, 42, 40, 26, 13, 0, 0, 0, 0, 0, 0, 0, 0, 0, 0, 0, 0, 0, 0, 0, 0, 0, 0, 0, 0, 0, 0, 0, 0, 0, 0, 0, 0, 0, 0, 0, 0, 0, 0, 0, 0, 0, 0, 0, 0, 0, 0, 0, 0, 0, 0, 0, 0, 0, 0, 0, 0, 0, 0, 0, 0, 0, 0, 0, 0
0, 0, 44, 0, 0, 1, 3, 6, 11, 21, 38, 50, 53, 64, 84, 93, 105, 101, 110, 99, 101, 116, 142, 117, 108, 118, 124, 113, 130, 83, 98, 103, 108, 101, 82, 77, 102, 66, 61, 52, 35, 36, 42, 31, 23, 18, 1, 0, 0, 0, 0, 0, 0, 0, 0, 0, 0, 0, 0, 0, 0, 0, 0, 0, 0, 0, 0, 0, 0, 0, 0, 0, 0, 0, 0, 0, 0, 0, 0, 0, 0, 0, 0, 0, 0, 0, 0, 0, 0, 0, 0, 0, 0, 0, 0, 0, 0, 0, 0, 0, 0, 0, 0, 0, 0, 0
0, 0, 45, 0, 0, 0, 5, 11, 12, 15, 26, 30, 46, 44, 59, 72, 69, 60, 82, 89, 89, 106, 88, 104, 95, 103, 101, 91, 81, 79, 80, 74, 81, 86, 86, 67, 54, 47, 46, 53, 44, 45, 40, 23, 18, 15, 0, 0, 0, 0, 0, 0, 0, 0, 0, 0, 0, 0, 0, 0, 0, 0, 0, 0, 0, 0, 0, 0, 0, 0, 0, 0, 0, 0, 0, 0, 0, 0, 0, 0, 0, 0, 0, 0, 0, 0, 0, 0, 0, 0, 0, 0, 0, 0, 0, 0, 0, 0, 0, 0, 0, 0, 0, 0, 0, 0
0, 0, 46, 5, 0, 3, 2, 5, 9, 7, 15, 22, 16, 29, 34, 41, 41, 58, 57, 67, 82, 64, 64, 83, 68, 79, 75, 71, 69, 86, 67, 60, 57, 68, 46, 54, 46, 42, 48, 33, 34, 39, 32, 18, 21, 7, 0, 0, 0, 0, 0, 0, 0, 0, 0, 0, 0, 0, 0, 0, 0, 0, 0, 0, 0, 0, 0, 0, 0, 0, 0, 0, 0, 0, 0, 0, 0, 0, 0, 0, 0, 0, 0, 0, 0, 0, 0, 0, 0, 0, 0, 0, 0, 0, 0, 0, 0, 0, 0, 0, 0, 0, 0, 0, 0, 0
0, 0, 47, 0, 0, 1, 2, 5, 7, 5, 16, 9, 24, 23, 26, 33, 27, 37, 41, 60, 42, 51, 55, 63, 54, 61, 53, 67, 49, 48, 61, 55, 61, 52, 49, 40, 48, 44, 43, 41, 33, 29, 21, 20, 21, 5, 1, 0, 0, 0, 0, 0, 0, 0, 0, 0, 0, 0, 0, 0, 0, 0, 0, 0, 0, 0, 0, 0, 0, 0, 0, 0, 0, 0, 0, 0, 0, 0, 0, 0, 0, 0, 0, 0, 0, 0, 0, 0, 0, 0, 0, 0, 0, 0, 0, 0, 0, 0, 0, 0, 0, 0, 0, 0, 0, 0
0, 0, 48, 0, 0, 0, 3, 3, 1, 6, 16, 8, 11, 21, 18, 11, 25, 25, 37, 51, 46, 48, 45, 75, 65, 59, 64, 58, 63, 55, 47, 37, 45, 34, 38, 48, 31, 36, 41, 41, 30, 27, 22, 14, 14, 7, 0, 0, 0, 0, 0, 0, 0, 0, 0, 0, 0, 0, 0, 0, 0, 0, 0, 0, 0, 0, 0, 0, 0, 0, 0, 0, 0, 0, 0, 0, 0, 0, 0, 0, 0, 0, 0, 0, 0, 0, 0, 0, 0, 0, 0, 0, 0, 0, 0, 0, 0, 0, 0, 0, 0, 0, 0, 0, 0, 0
0, 0, 49, 0, 0, 0, 0, 1, 1, 1, 11, 4, 4, 18, 14, 18, 13, 31, 39, 32, 28, 44, 41, 55, 41, 41, 57, 56, 71, 71, 38, 56, 65, 44, 39, 31, 43, 35, 29, 30, 23, 30, 27, 17, 11, 4, 1, 0, 0, 0, 0, 0, 0, 0, 0, 0, 0, 0, 0, 0, 0, 0, 0, 0, 0, 0, 0, 0, 0, 0, 0, 0, 0, 0, 0, 0, 0, 0, 0, 0, 0, 0, 0, 0, 0, 0, 0, 0, 0, 0, 0, 0, 0, 0, 0, 0, 0, 0, 0, 0, 0, 0, 0, 0, 0, 0
0, 0, 50, 1, 0, 0, 0, 0, 2, 0, 7, 3, 5, 8, 14, 16, 24, 32, 30, 30, 56, 35, 33, 40, 49, 39, 35, 45, 51, 50, 53, 44, 40, 46, 45, 43, 36, 32, 33, 34, 23, 13, 20, 19, 13, 3, 0, 0, 0, 0, 0, 0, 0, 0, 0, 0, 0, 0, 0, 0, 0, 0, 0, 0, 0, 0, 0, 0, 0, 0, 0, 0, 0, 0, 0, 0, 0, 0, 0, 0, 0, 0, 0, 0, 0, 0, 0, 0, 0, 0, 0, 0, 0, 0, 0, 0, 0, 0, 0, 0, 0, 0, 0, 0, 0, 0
0, 0, 51, 0, 0, 0, 1, 0, 2, 3, 11, 3, 13, 11, 18, 21, 24, 23, 28, 49, 47, 48, 41, 58, 42, 57, 69, 68, 51, 39, 46, 60, 56, 48, 54, 41, 38, 37, 32, 32, 27, 41, 15, 17, 11, 3, 0, 0, 0, 0, 0, 0, 0, 0, 0, 0, 0, 0, 0, 0, 0, 0, 0, 0, 0, 0, 0, 0, 0, 0, 0, 0, 0, 0, 0, 0, 0, 0, 0, 0, 0, 0, 0, 0, 0, 0, 0, 0, 0, 0, 0, 0, 0, 0, 0, 0, 0, 0, 0, 0, 0, 0, 0, 0, 0, 0
0, 0, 52, 0, 0, 0, 0, 1, 8, 3, 20, 8, 14, 16, 38, 31, 33, 37, 53, 61, 53, 47, 58, 52, 57, 64, 50, 63, 72, 55, 47, 54, 61, 49, 38, 39, 34, 35, 33, 36, 32, 25, 20, 20, 18, 5, 0, 0, 0, 0, 0, 0, 0, 0, 0, 0, 0, 0, 0, 0, 0, 0, 0, 0, 0, 0, 0, 0, 0, 0, 0, 0, 0, 0, 0, 0, 0, 0, 0, 0, 0, 0, 0, 0, 0, 0, 0, 0, 0, 0, 0, 0, 0, 0, 0, 0, 0, 0, 0, 0, 0, 0, 0, 0, 0, 0
0, 0, 53, 1, 0, 1, 4, 4, 8, 9, 21, 20, 29, 36, 32, 42, 46, 59, 63, 60, 61, 73, 59, 84, 72, 71, 79, 62, 61, 87, 72, 56, 49, 57, 61, 45, 53, 32, 48, 39, 35, 27, 26, 30, 17, 14, 1, 0, 0, 0, 0, 0, 0, 0, 0, 0, 0, 0, 0, 0, 0, 0, 0, 0, 0, 0, 0, 0, 0, 0, 0, 0, 0, 0, 0, 0, 0, 0, 0, 0, 0, 0, 0, 0, 0, 0, 0, 0, 0, 0, 0, 0, 0, 0, 0, 0, 0, 0, 0, 0, 0, 0, 0, 0, 0, 0
0, 0, 54, 5, 0, 3, 4, 7, 5, 20, 40, 29, 45, 47, 60, 73, 63, 57, 88, 82, 85, 72, 100, 75, 84, 91, 84, 100, 97, 99, 99, 95, 81, 77, 69, 70, 65, 51, 45, 48, 43, 47, 32, 18, 21, 11, 0, 0, 0, 0, 0, 0, 0, 0, 0, 0, 0, 0, 0, 0, 0, 0, 0, 0, 0, 0, 0, 0, 0, 0, 0, 0, 0, 0, 0, 0, 0, 0, 0, 0, 0, 0, 0, 0, 0, 0, 0, 0, 0, 0, 0, 0, 0, 0, 0, 0, 0, 0, 0, 0, 0, 0, 0, 0, 0, 0
0, 0, 55, 0, 2, 2, 10, 6, 12, 25, 40, 40, 45, 62, 64, 90, 97, 85, 110, 121, 118, 125, 128, 125, 134, 135, 110, 124, 100, 91, 114, 113, 92, 93, 96, 78, 93, 72, 66, 51, 45, 34, 34, 30, 23, 11, 0, 0, 0, 0, 0, 0, 0, 0, 0, 0, 0, 0, 0, 0, 0, 0, 0, 0, 0, 0, 0, 0, 0, 0, 0, 0, 0, 0, 0, 0, 0, 0, 0, 0, 0, 0, 0, 0, 0, 0, 0, 0, 0, 0, 0, 0, 0, 0, 0, 0, 0, 0, 0, 0, 0, 0, 0, 0, 0, 0
0, 0, 56, 5, 2, 2, 7, 16, 15, 40, 78, 37, 57, 80, 101, 125, 104, 128, 145, 118, 164, 147, 164, 139, 146, 138, 152, 142, 151, 127, 112, 112, 115, 125, 132, 92, 98, 88, 62, 73, 65, 50, 52, 41, 13, 10, 1, 0, 0, 0, 0, 0, 0, 0, 0, 0, 0, 0, 0, 0, 0, 0, 0, 0, 0, 0, 0, 0, 0, 0, 0, 0, 0, 0, 0, 0, 0, 0, 0, 0, 0, 0, 0, 0, 0, 0, 0, 0, 0, 0, 0, 0, 0, 0, 0, 0, 0, 0, 0, 0, 0, 0, 0, 0, 0, 0
0, 0, 57, 0, 1, 9, 8, 17, 31, 39, 87, 71, 79, 118, 127, 119, 193, 175, 170, 210, 192, 175, 176, 168, 192, 175, 176, 174, 187, 172, 175, 167, 135, 135, 140, 135, 86, 98, 83, 96, 64, 59, 54, 41, 35, 21, 2, 0, 0, 0, 0, 0, 0, 0, 0, 0, 0, 0, 0, 0, 0, 0, 0, 0, 0, 0, 0, 0, 0, 0, 0, 0, 0, 0, 0, 0, 0, 0, 0, 0, 0, 0, 0, 0, 0, 0, 0, 0, 0, 0, 0, 0, 0, 0, 0, 0, 0, 0, 0, 0, 0, 0, 0, 0, 0, 0
0, 0, 58, 5, 0, 8, 16, 25, 46, 56, 92, 88, 96, 135, 146, 189, 171, 179, 232, 195, 221, 273, 243, 219, 242, 229, 233, 256, 188, 217, 161, 173, 167, 163, 152, 130, 145, 132, 121, 120, 98, 62, 77, 60, 43, 18, 0, 0, 0, 0, 0, 0, 0, 0, 0, 0, 0, 0, 0, 0, 0, 0, 0, 0, 0, 0, 0, 0, 0, 0, 0, 0, 0, 0, 0, 0, 0, 0, 0, 0, 0, 0, 0, 0, 0, 0, 0, 0, 0, 0, 0, 0, 0, 0, 0, 0, 0, 0, 0, 0, 0, 0, 0, 0, 0, 0
0, 0, 59, 0, 1, 9, 13, 26, 40, 62, 121, 91, 122, 133, 197, 212, 188, 174, 240, 218, 235, 235, 227, 270, 253, 248, 233, 250, 237, 221, 201, 185, 178, 162, 147, 141, 128, 116, 114, 125, 104, 71, 53, 64, 43, 27, 2, 0, 0, 0, 0, 0, 0, 0, 0, 0, 0, 0, 0, 0, 0, 0, 0, 0, 0, 0, 0, 0, 0, 0, 0, 0, 0, 0, 0, 0, 0, 0, 0, 0, 0, 0, 0, 0, 0, 0, 0, 0, 0, 0, 0, 0, 0, 0, 0, 0, 0, 0, 0, 0, 0, 0, 0, 0, 0, 0
0, 0, 60, 2, 1, 10, 12, 26, 30, 59, 131, 94, 112, 144, 189, 221, 184, 211, 211, 247, 248, 236, 256, 222, 229, 266, 234, 216, 202, 234, 195, 176, 169, 186, 169, 133, 131, 140, 115, 136, 81, 81, 57, 54, 39, 18, 0, 0, 0, 0, 0, 0, 0, 0, 0, 0, 0, 0, 0, 0, 0, 0, 0, 0, 0, 0, 0, 0, 0, 0, 0, 0, 0, 0, 0, 0, 0, 0, 0, 0, 0, 0, 0, 0, 0, 0, 0, 0, 0, 0, 0, 0, 0, 0, 0, 0, 0, 0, 0, 0, 0, 0, 0, 0, 0, 0
0, 0, 61, 0, 2, 12, 15, 26, 43, 62, 109, 109, 112, 158, 165, 196, 205, 181, 231, 221, 251, 259, 256, 250, 242, 236, 262, 244, 209, 230, 206, 179, 197, 187, 148, 129, 130, 142, 117, 101, 100, 85, 63, 54, 41, 23, 1, 0, 0, 0, 0, 0, 0, 0, 0, 0, 0, 0, 0, 0, 0, 0, 0, 0, 0, 0, 0, 0, 0, 0, 0, 0, 0, 0, 0, 0, 0, 0, 0, 0, 0, 0, 0, 0, 0, 0, 0, 0, 0, 0, 0, 0, 0, 0, 0, 0, 0, 0, 0, 0, 0, 0, 0, 0, 0, 0
0, 0, 62, 0, 2, 11, 10, 27, 37, 50, 111, 99, 109, 136, 171, 198, 186, 209, 209, 261, 205, 253, 254, 248, 281, 244, 251, 226, 210, 200, 189, 176, 175, 162, 159, 131, 142, 123, 96, 103, 121, 62, 65, 62, 46, 15, 1, 0, 0, 0, 0, 0, 0, 0, 0, 0, 0, 0, 0, 0, 0, 0, 0, 0, 0, 0, 0, 0, 0, 0, 0, 0, 0, 0, 0, 0, 0, 0, 0, 0, 0, 0, 0, 0, 0, 0, 0, 0, 0, 0, 0, 0, 0, 0, 0, 0, 0, 0, 0, 0, 0, 0, 0, 0, 0, 0
0, 0, 63, 2, 5, 9, 15, 25, 30, 52, 111, 105, 122, 127, 178, 209, 214, 183, 231, 222, 246, 265, 249, 233, 234, 232, 219, 231, 180, 206, 207, 220, 179, 164, 152, 146, 137, 133, 106, 119, 89, 90, 61, 61, 39, 26, 0, 0, 0, 0, 0, 0, 0, 0, 0, 0, 0, 0, 0, 0, 0, 0, 0, 0, 0, 0, 0, 0, 0, 0, 0, 0, 0, 0, 0, 0, 0, 0, 0, 0, 0, 0, 0, 0, 0, 0, 0, 0, 0, 0, 0, 0, 0, 0, 0, 0, 0, 0, 0, 0, 0, 0, 0, 0, 0, 0
0, 0, 64, 2, 2, 6, 16, 24, 35, 52, 124, 90, 117, 148, 170, 195, 196, 202, 210, 232, 236, 243, 274, 283, 255, 255, 247, 210, 213, 214, 210, 188, 181, 178, 192, 152, 135, 112, 112, 97, 89, 74, 72, 65, 38, 11, 0, 0, 0, 0, 0, 0, 0, 0, 0, 0, 0, 0, 0, 0, 0, 0, 0, 0, 0, 0, 0, 0, 0, 0, 0, 0, 0, 0, 0, 0, 0, 0, 0, 0, 0, 0, 0, 0, 0, 0, 0, 0, 0, 0, 0, 0, 0, 0, 0, 0, 0, 0, 0, 0, 0, 0, 0, 0, 0, 0
0, 0, 65, 5, 3, 6, 10, 27, 46, 47, 109, 97, 99, 144, 172, 187, 203, 228, 236, 246, 259, 243, 262, 238, 268, 234, 239, 226, 223, 205, 160, 202, 185, 172, 151, 149, 132, 116, 114, 104, 101, 98, 78, 57, 34, 25, 1, 0, 0, 0, 0, 0, 0, 0, 0, 0, 0, 0, 0, 0, 0, 0, 0, 0, 0, 0, 0, 0, 0, 0, 0, 0, 0, 0, 0, 0, 0, 0, 0, 0, 0, 0, 0, 0, 0, 0, 0, 0, 0, 0, 0, 0, 0, 0, 0, 0, 0, 0, 0, 0, 0, 0, 0, 0, 0, 0
0, 0, 66, 0, 3, 7, 17, 23, 30, 57, 132, 85, 116, 137, 176, 178, 190, 182, 210, 249, 255, 301, 263, 256, 207, 268, 225, 226, 211, 204, 196, 189, 182, 150, 173, 144, 128, 148, 115, 111, 86, 73, 88, 54, 55, 24, 4, 0, 0, 0, 0, 0, 0, 0, 0, 0, 0, 0, 0, 0, 0, 0, 0, 0, 0, 0, 0, 0, 0, 0, 0, 0, 0, 0, 0, 0, 0, 0, 0, 0, 0, 0, 0, 0, 0, 0, 0, 0, 0, 0, 0, 0, 0, 0, 0, 0, 0, 0, 0, 0, 0, 0, 0, 0, 0, 0
0, 0, 67, 0, 1, 9, 10, 14, 38, 64, 114, 102, 128, 128, 163, 179, 194, 200, 210, 217, 241, 237, 269, 227, 273, 235, 227, 221, 266, 216, 200, 190, 182, 180, 157, 150, 141, 115, 95, 113, 91, 87, 51, 53, 40, 22, 2, 0, 0, 0, 0, 0, 0, 0, 0, 0, 0, 0, 0, 0, 0, 0, 0, 0, 0, 0, 0, 0, 0, 0, 0, 0, 0, 0, 0, 0, 0, 0, 0, 0, 0, 0, 0, 0, 0, 0, 0, 0, 0, 0, 0, 0, 0, 0, 0, 0, 0, 0, 0, 0, 0, 0, 0, 0, 0, 0
0, 0, 68, 2, 4, 10, 12, 28, 39, 60, 120, 106, 96, 149, 154, 212, 194, 216, 237, 278, 246, 249, 265, 275, 250, 202, 230, 218, 207, 228, 159, 202, 172, 175, 138, 157, 148, 152, 128, 108, 97, 86, 68, 49, 38, 36, 0, 0, 0, 0, 0, 0, 0, 0, 0, 0, 0, 0, 0, 0, 0, 0, 0, 0, 0, 0, 0, 0, 0, 0, 0, 0, 0, 0, 0, 0, 0, 0, 0, 0, 0, 0, 0, 0, 0, 0, 0, 0, 0, 0, 0, 0, 0, 0, 0, 0, 0, 0, 0, 0, 0, 0, 0, 0, 0, 0
0, 0, 69, 5, 1, 8, 15, 18, 40, 55, 115, 79, 98, 164, 154, 196, 179, 201, 229, 253, 270, 265, 264, 251, 217, 252, 242, 196, 224, 209, 195, 175, 186, 169, 160, 144, 139, 122, 122, 102, 92, 67, 66, 56, 35, 28, 2, 0, 0, 0, 0, 0, 0, 0, 0, 0, 0, 0, 0, 0, 0, 0, 0, 0, 0, 0, 0, 0, 0, 0, 0, 0, 0, 0, 0, 0, 0, 0, 0, 0, 0, 0, 0, 0, 0, 0, 0, 0, 0, 0, 0, 0, 0, 0, 0, 0, 0, 0, 0, 0, 0, 0, 0, 0, 0, 0
0, 0, 70, 3, 7, 7, 14, 26, 36, 58, 117, 111, 98, 139, 143, 175, 207, 212, 202, 229, 221, 247, 268, 246, 254, 210, 236, 201, 206, 198, 194, 197, 194, 132, 187, 141, 140, 136, 114, 96, 104, 89, 65, 59, 37, 18, 0, 0, 0, 0, 0, 0, 0, 0, 0, 0, 0, 0, 0, 0, 0, 0, 0, 0, 0, 0, 0, 0, 0, 0, 0, 0, 0, 0, 0, 0, 0, 0, 0, 0, 0, 0, 0, 0, 0, 0, 0, 0, 0, 0, 0, 0, 0, 0, 0, 0, 0, 0, 0, 0, 0, 0, 0, 0, 0, 0
0, 0, 71, 1, 4, 6, 8, 29, 35, 60, 111, 105, 108, 137, 159, 202, 223, 217, 212, 243, 221, 264, 224, 230, 227, 234, 243, 213, 207, 216, 202, 172, 196, 158, 160, 150, 142, 128, 122, 96, 97, 85, 62, 47, 35, 22, 1, 0, 0, 0, 0, 0, 0, 0, 0, 0, 0, 0, 0, 0, 0, 0, 0, 0, 0, 0, 0, 0, 0, 0, 0, 0, 0, 0, 0, 0, 0, 0, 0, 0, 0, 0, 0, 0, 0, 0, 0, 0, 0, 0, 0, 0, 0, 0, 0, 0, 0, 0, 0, 0, 0, 0, 0, 0, 0, 0
0, 0, 72, 3, 7, 11, 11, 18, 43, 58, 114, 79, 127, 148, 152, 177, 210, 209, 227, 231, 258, 278, 264, 234, 271, 269, 194, 238, 229, 217, 211, 163, 167, 167, 177, 130, 136, 119, 129, 106, 86, 73, 78, 45, 33, 25, 1, 0, 0, 0, 0, 0, 0, 0, 0, 0, 0, 0, 0, 0, 0, 0, 0, 0, 0, 0, 0, 0, 0, 0, 0, 0, 0, 0, 0, 0, 0, 0, 0, 0, 0, 0, 0, 0, 0, 0, 0, 0, 0, 0, 0, 0, 0, 0, 0, 0, 0, 0, 0, 0, 0, 0, 0, 0, 0, 0
0, 0, 73, 2, 5, 9, 8, 23, 39, 46, 117, 93, 94, 129, 172, 199, 202, 198, 226, 264, 251, 261, 237, 244, 260, 259, 250, 249, 220, 234, 201, 188, 188, 173, 167, 138, 135, 123, 97, 87, 96, 72, 68, 57, 43, 16, 1, 0, 0, 0, 0, 0, 0, 0, 0, 0, 0, 0, 0, 0, 0, 0, 0, 0, 0, 0, 0, 0, 0, 0, 0, 0, 0, 0, 0, 0, 0, 0, 0, 0, 0, 0, 0, 0, 0, 0, 0, 0, 0, 0, 0, 0, 0, 0, 0, 0, 0, 0, 0, 0, 0, 0, 0, 0, 0, 0
0, 0, 74, 0, 6, 3, 12, 28, 47, 66, 108, 91, 122, 146, 188, 194, 210, 175, 208, 212, 253, 254, 217, 227, 241, 257, 242, 219, 225, 199, 199, 191, 190, 158, 163, 151, 149, 131, 113, 97, 93, 81, 70, 55, 43, 22, 1, 0, 0, 0, 0, 0, 0, 0, 0, 0, 0, 0, 0, 0, 0, 0, 0, 0, 0, 0, 0, 0, 0, 0, 0, 0, 0, 0, 0, 0, 0, 0, 0, 0, 0, 0, 0, 0, 0, 0, 0, 0, 0, 0, 0, 0, 0, 0, 0, 0, 0, 0, 0, 0, 0, 0, 0, 0, 0, 0
0, 0, 75, 7, 2, 7, 17, 35, 26, 49, 127, 96, 115, 158, 164, 194, 210, 204, 242, 255, 239, 224, 256, 259, 276, 219, 222, 219, 213, 216, 213, 175, 177, 187, 168, 141, 144, 123, 122, 88, 82, 74, 61, 43, 49, 23, 1, 0, 0, 0, 0, 0, 0, 0, 0, 0, 0, 0, 0, 0, 0, 0, 0, 0, 0, 0, 0, 0, 0, 0, 0, 0, 0, 0, 0, 0, 0, 0, 0, 0, 0, 0, 0, 0, 0, 0, 0, 0, 0, 0, 0, 0, 0, 0, 0, 0, 0, 0, 0, 0, 0, 0, 0, 0, 0, 0
0, 0, 76, 3, 5, 6, 18, 32, 34, 57, 124, 105, 100, 127, 179, 210, 192, 223, 224, 257, 245, 241, 236, 277, 240, 241, 210, 206, 206, 220, 211, 167, 179, 141, 152, 142, 169, 132, 127, 112, 92, 72, 71, 47, 45, 20, 0, 0, 0, 0, 0, 0, 0, 0, 0, 0, 0, 0, 0, 0, 0, 0, 0, 0, 0, 0, 0, 0, 0, 0, 0, 0, 0, 0, 0, 0, 0, 0, 0, 0, 0, 0, 0, 0, 0, 0, 0, 0, 0, 0, 0, 0, 0, 0, 0, 0, 0, 0, 0, 0, 0, 0, 0, 0, 0, 0
0, 0, 77, 1, 1, 2, 16, 22, 47, 61, 116, 91, 106, 124, 183, 210, 193, 231, 248, 245, 264, 252, 229, 263, 245, 249, 228, 212, 214, 214, 184, 202, 172, 182, 159, 147, 152, 132, 121, 110, 99, 78, 62, 63, 41, 15, 2, 0, 0, 0, 0, 0, 0, 0, 0, 0, 0, 0, 0, 0, 0, 0, 0, 0, 0, 0, 0, 0, 0, 0, 0, 0, 0, 0, 0, 0, 0, 0, 0, 0, 0, 0, 0, 0, 0, 0, 0, 0, 0, 0, 0, 0, 0, 0, 0, 0, 0, 0, 0, 0, 0, 0, 0, 0, 0, 0
