# TOPAS Version: 3.1.p3
# Parameter File: REDLEN_small_phantom_mc_basic_2cm.txt
# Results for scorer PhantomDose
# Scored on surface: CdTeCrystal1/YPlusSurface
# X in 100 bins of 0.03332 cm
# Y in 1 bin  of 0.4 cm
# Z in 100 bins of 0.0375 cm
# SurfaceTrackCount : Sum   
# Binned by incident track energy in 100 bins of 0.00104 MeV from 0.016 MeV to 0.12 MeV
# First bin is underflow, next to last bin is overflow, last bin is for case of no incident track.
0, 0, 0, 0, 0, 0, 0, 0, 1, 0, 0, 0, 0, 1, 0, 0, 2, 1, 4, 3, 0, 1, 4, 3, 1, 3, 5, 5, 2, 1, 1, 1, 1, 5, 3, 5, 2, 2, 0, 1, 2, 2, 2, 0, 0, 0, 0, 0, 0, 0, 0, 0, 0, 0, 0, 0, 0, 0, 0, 0, 0, 0, 0, 0, 0, 0, 0, 0, 0, 0, 0, 0, 0, 0, 0, 0, 0, 0, 0, 0, 0, 0, 0, 0, 0, 0, 0, 0, 0, 0, 0, 0, 0, 0, 0, 0, 0, 0, 0, 0, 0, 0, 0, 0, 0, 0
0, 0, 1, 0, 0, 0, 0, 0, 0, 0, 0, 0, 2, 1, 0, 2, 0, 0, 2, 3, 2, 3, 1, 0, 0, 6, 2, 3, 5, 2, 2, 2, 2, 3, 1, 2, 5, 0, 0, 0, 0, 0, 1, 1, 0, 0, 0, 0, 0, 0, 0, 0, 0, 0, 0, 0, 0, 0, 0, 0, 0, 0, 0, 0, 0, 0, 0, 0, 0, 0, 0, 0, 0, 0, 0, 0, 0, 0, 0, 0, 0, 0, 0, 0, 0, 0, 0, 0, 0, 0, 0, 0, 0, 0, 0, 0, 0, 0, 0, 0, 0, 0, 0, 0, 0, 0
0, 0, 2, 1, 0, 1, 0, 0, 0, 0, 0, 0, 0, 2, 2, 1, 1, 4, 3, 3, 2, 3, 1, 5, 5, 1, 2, 1, 2, 5, 0, 3, 9, 0, 2, 1, 3, 0, 0, 1, 3, 0, 3, 0, 0, 0, 0, 0, 0, 0, 0, 0, 0, 0, 0, 0, 0, 0, 0, 0, 0, 0, 0, 0, 0, 0, 0, 0, 0, 0, 0, 0, 0, 0, 0, 0, 0, 0, 0, 0, 0, 0, 0, 0, 0, 0, 0, 0, 0, 0, 0, 0, 0, 0, 0, 0, 0, 0, 0, 0, 0, 0, 0, 0, 0, 0
0, 0, 3, 0, 0, 0, 0, 0, 0, 0, 3, 1, 1, 1, 0, 1, 0, 2, 2, 2, 4, 7, 6, 1, 1, 1, 5, 3, 2, 3, 1, 0, 4, 2, 1, 4, 2, 1, 2, 0, 0, 0, 1, 0, 0, 0, 0, 0, 0, 0, 0, 0, 0, 0, 0, 0, 0, 0, 0, 0, 0, 0, 0, 0, 0, 0, 0, 0, 0, 0, 0, 0, 0, 0, 0, 0, 0, 0, 0, 0, 0, 0, 0, 0, 0, 0, 0, 0, 0, 0, 0, 0, 0, 0, 0, 0, 0, 0, 0, 0, 0, 0, 0, 0, 0, 0
0, 0, 4, 0, 0, 0, 0, 0, 0, 1, 2, 2, 2, 1, 3, 3, 1, 2, 0, 4, 4, 1, 0, 6, 5, 5, 4, 2, 0, 2, 0, 5, 3, 1, 3, 4, 2, 1, 1, 1, 0, 0, 1, 0, 0, 0, 0, 0, 0, 0, 0, 0, 0, 0, 0, 0, 0, 0, 0, 0, 0, 0, 0, 0, 0, 0, 0, 0, 0, 0, 0, 0, 0, 0, 0, 0, 0, 0, 0, 0, 0, 0, 0, 0, 0, 0, 0, 0, 0, 0, 0, 0, 0, 0, 0, 0, 0, 0, 0, 0, 0, 0, 0, 0, 0, 0
0, 0, 5, 3, 4, 0, 9, 8, 13, 25, 51, 37, 51, 52, 79, 93, 100, 102, 106, 109, 114, 100, 125, 114, 106, 95, 101, 106, 89, 112, 84, 85, 67, 71, 67, 70, 72, 63, 41, 46, 24, 20, 38, 22, 15, 8, 0, 0, 0, 0, 0, 0, 0, 0, 0, 0, 0, 0, 0, 0, 0, 0, 0, 0, 0, 0, 0, 0, 0, 0, 0, 0, 0, 0, 0, 0, 0, 0, 0, 0, 0, 0, 0, 0, 0, 0, 0, 0, 0, 0, 0, 0, 0, 0, 0, 0, 0, 0, 0, 0, 0, 0, 0, 0, 0, 0
0, 0, 6, 3, 1, 3, 15, 27, 38, 53, 108, 94, 142, 126, 154, 198, 181, 215, 221, 239, 218, 245, 280, 236, 259, 247, 255, 216, 237, 207, 213, 173, 156, 170, 135, 160, 138, 131, 115, 88, 107, 93, 59, 58, 45, 23, 0, 0, 0, 0, 0, 0, 0, 0, 0, 0, 0, 0, 0, 0, 0, 0, 0, 0, 0, 0, 0, 0, 0, 0, 0, 0, 0, 0, 0, 0, 0, 0, 0, 0, 0, 0, 0, 0, 0, 0, 0, 0, 0, 0, 0, 0, 0, 0, 0, 0, 0, 0, 0, 0, 0, 0, 0, 0, 0, 0
0, 0, 7, 5, 4, 6, 18, 27, 43, 52, 124, 81, 121, 154, 163, 181, 196, 222, 212, 230, 235, 234, 233, 243, 221, 237, 257, 229, 221, 188, 194, 200, 185, 166, 163, 131, 113, 151, 115, 94, 106, 87, 61, 45, 51, 22, 0, 0, 0, 0, 0, 0, 0, 0, 0, 0, 0, 0, 0, 0, 0, 0, 0, 0, 0, 0, 0, 0, 0, 0, 0, 0, 0, 0, 0, 0, 0, 0, 0, 0, 0, 0, 0, 0, 0, 0, 0, 0, 0, 0, 0, 0, 0, 0, 0, 0, 0, 0, 0, 0, 0, 0, 0, 0, 0, 0
0, 0, 8, 2, 3, 7, 18, 21, 42, 55, 139, 93, 104, 155, 190, 212, 226, 212, 248, 232, 258, 259, 234, 239, 248, 260, 263, 264, 216, 196, 191, 192, 178, 138, 172, 147, 141, 137, 104, 109, 92, 70, 72, 42, 40, 19, 0, 0, 0, 0, 0, 0, 0, 0, 0, 0, 0, 0, 0, 0, 0, 0, 0, 0, 0, 0, 0, 0, 0, 0, 0, 0, 0, 0, 0, 0, 0, 0, 0, 0, 0, 0, 0, 0, 0, 0, 0, 0, 0, 0, 0, 0, 0, 0, 0, 0, 0, 0, 0, 0, 0, 0, 0, 0, 0, 0
0, 0, 9, 11, 2, 5, 11, 17, 37, 62, 113, 104, 130, 147, 160, 170, 189, 226, 253, 252, 262, 232, 247, 260, 244, 223, 224, 216, 198, 222, 199, 191, 183, 178, 172, 175, 147, 137, 126, 109, 97, 86, 64, 52, 36, 28, 2, 0, 0, 0, 0, 0, 0, 0, 0, 0, 0, 0, 0, 0, 0, 0, 0, 0, 0, 0, 0, 0, 0, 0, 0, 0, 0, 0, 0, 0, 0, 0, 0, 0, 0, 0, 0, 0, 0, 0, 0, 0, 0, 0, 0, 0, 0, 0, 0, 0, 0, 0, 0, 0, 0, 0, 0, 0, 0, 0
0, 0, 10, 5, 3, 11, 12, 29, 42, 54, 113, 109, 110, 156, 173, 190, 221, 208, 238, 290, 213, 219, 221, 280, 272, 243, 265, 242, 249, 216, 218, 204, 164, 150, 154, 155, 136, 118, 109, 114, 98, 69, 65, 56, 28, 24, 0, 0, 0, 0, 0, 0, 0, 0, 0, 0, 0, 0, 0, 0, 0, 0, 0, 0, 0, 0, 0, 0, 0, 0, 0, 0, 0, 0, 0, 0, 0, 0, 0, 0, 0, 0, 0, 0, 0, 0, 0, 0, 0, 0, 0, 0, 0, 0, 0, 0, 0, 0, 0, 0, 0, 0, 0, 0, 0, 0
0, 0, 11, 4, 1, 10, 9, 22, 42, 51, 107, 102, 117, 140, 188, 187, 210, 208, 206, 264, 215, 255, 224, 254, 215, 245, 257, 232, 222, 215, 187, 185, 190, 159, 151, 150, 141, 136, 101, 116, 93, 83, 71, 54, 35, 21, 0, 0, 0, 0, 0, 0, 0, 0, 0, 0, 0, 0, 0, 0, 0, 0, 0, 0, 0, 0, 0, 0, 0, 0, 0, 0, 0, 0, 0, 0, 0, 0, 0, 0, 0, 0, 0, 0, 0, 0, 0, 0, 0, 0, 0, 0, 0, 0, 0, 0, 0, 0, 0, 0, 0, 0, 0, 0, 0, 0
0, 0, 12, 2, 7, 10, 17, 30, 40, 73, 120, 104, 118, 164, 166, 215, 205, 181, 227, 253, 259, 252, 246, 267, 225, 242, 252, 255, 242, 229, 233, 221, 183, 176, 132, 153, 157, 133, 105, 111, 73, 75, 54, 49, 42, 23, 1, 0, 0, 0, 0, 0, 0, 0, 0, 0, 0, 0, 0, 0, 0, 0, 0, 0, 0, 0, 0, 0, 0, 0, 0, 0, 0, 0, 0, 0, 0, 0, 0, 0, 0, 0, 0, 0, 0, 0, 0, 0, 0, 0, 0, 0, 0, 0, 0, 0, 0, 0, 0, 0, 0, 0, 0, 0, 0, 0
0, 0, 13, 5, 0, 5, 19, 29, 48, 52, 119, 93, 128, 153, 174, 202, 194, 219, 244, 226, 241, 219, 263, 250, 216, 220, 226, 215, 215, 194, 192, 170, 193, 167, 150, 127, 123, 129, 122, 98, 106, 70, 74, 49, 38, 28, 0, 0, 0, 0, 0, 0, 0, 0, 0, 0, 0, 0, 0, 0, 0, 0, 0, 0, 0, 0, 0, 0, 0, 0, 0, 0, 0, 0, 0, 0, 0, 0, 0, 0, 0, 0, 0, 0, 0, 0, 0, 0, 0, 0, 0, 0, 0, 0, 0, 0, 0, 0, 0, 0, 0, 0, 0, 0, 0, 0
0, 0, 14, 2, 1, 10, 19, 21, 47, 57, 114, 87, 116, 145, 167, 219, 219, 209, 198, 234, 269, 256, 264, 210, 222, 254, 231, 215, 236, 210, 197, 203, 181, 192, 163, 149, 125, 118, 94, 127, 112, 71, 77, 47, 39, 18, 1, 0, 0, 0, 0, 0, 0, 0, 0, 0, 0, 0, 0, 0, 0, 0, 0, 0, 0, 0, 0, 0, 0, 0, 0, 0, 0, 0, 0, 0, 0, 0, 0, 0, 0, 0, 0, 0, 0, 0, 0, 0, 0, 0, 0, 0, 0, 0, 0, 0, 0, 0, 0, 0, 0, 0, 0, 0, 0, 0
0, 0, 15, 5, 3, 13, 11, 19, 45, 51, 102, 104, 106, 153, 178, 234, 211, 190, 209, 238, 264, 242, 264, 228, 242, 237, 239, 217, 217, 223, 181, 198, 195, 170, 153, 129, 160, 117, 121, 105, 93, 71, 63, 44, 52, 28, 5, 0, 0, 0, 0, 0, 0, 0, 0, 0, 0, 0, 0, 0, 0, 0, 0, 0, 0, 0, 0, 0, 0, 0, 0, 0, 0, 0, 0, 0, 0, 0, 0, 0, 0, 0, 0, 0, 0, 0, 0, 0, 0, 0, 0, 0, 0, 0, 0, 0, 0, 0, 0, 0, 0, 0, 0, 0, 0, 0
0, 0, 16, 1, 3, 6, 24, 30, 45, 40, 113, 81, 109, 157, 173, 182, 226, 193, 240, 224, 240, 250, 251, 257, 227, 235, 269, 206, 218, 206, 168, 198, 209, 180, 163, 147, 138, 123, 122, 104, 90, 86, 75, 52, 33, 26, 0, 0, 0, 0, 0, 0, 0, 0, 0, 0, 0, 0, 0, 0, 0, 0, 0, 0, 0, 0, 0, 0, 0, 0, 0, 0, 0, 0, 0, 0, 0, 0, 0, 0, 0, 0, 0, 0, 0, 0, 0, 0, 0, 0, 0, 0, 0, 0, 0, 0, 0, 0, 0, 0, 0, 0, 0, 0, 0, 0
0, 0, 17, 2, 2, 4, 15, 17, 44, 52, 146, 95, 121, 143, 168, 214, 194, 252, 225, 254, 251, 255, 269, 266, 260, 252, 260, 213, 203, 192, 195, 190, 186, 159, 163, 140, 134, 116, 101, 109, 89, 80, 61, 58, 33, 22, 3, 0, 0, 0, 0, 0, 0, 0, 0, 0, 0, 0, 0, 0, 0, 0, 0, 0, 0, 0, 0, 0, 0, 0, 0, 0, 0, 0, 0, 0, 0, 0, 0, 0, 0, 0, 0, 0, 0, 0, 0, 0, 0, 0, 0, 0, 0, 0, 0, 0, 0, 0, 0, 0, 0, 0, 0, 0, 0, 0
0, 0, 18, 4, 4, 10, 17, 24, 36, 61, 121, 99, 114, 130, 166, 191, 186, 207, 234, 245, 219, 243, 243, 242, 264, 234, 240, 197, 242, 225, 201, 177, 187, 184, 150, 156, 154, 127, 113, 76, 78, 68, 80, 45, 43, 26, 1, 0, 0, 0, 0, 0, 0, 0, 0, 0, 0, 0, 0, 0, 0, 0, 0, 0, 0, 0, 0, 0, 0, 0, 0, 0, 0, 0, 0, 0, 0, 0, 0, 0, 0, 0, 0, 0, 0, 0, 0, 0, 0, 0, 0, 0, 0, 0, 0, 0, 0, 0, 0, 0, 0, 0, 0, 0, 0, 0
0, 0, 19, 0, 2, 13, 15, 36, 48, 54, 122, 100, 135, 125, 148, 206, 185, 208, 239, 243, 263, 268, 286, 263, 250, 240, 235, 237, 239, 191, 192, 187, 171, 154, 177, 142, 141, 118, 106, 105, 97, 73, 72, 42, 39, 27, 0, 0, 0, 0, 0, 0, 0, 0, 0, 0, 0, 0, 0, 0, 0, 0, 0, 0, 0, 0, 0, 0, 0, 0, 0, 0, 0, 0, 0, 0, 0, 0, 0, 0, 0, 0, 0, 0, 0, 0, 0, 0, 0, 0, 0, 0, 0, 0, 0, 0, 0, 0, 0, 0, 0, 0, 0, 0, 0, 0
0, 0, 20, 5, 4, 7, 9, 15, 40, 45, 120, 93, 123, 143, 182, 199, 184, 209, 256, 238, 241, 256, 247, 253, 270, 240, 239, 221, 222, 235, 220, 159, 177, 167, 139, 148, 141, 137, 94, 117, 75, 77, 65, 47, 34, 25, 2, 0, 0, 0, 0, 0, 0, 0, 0, 0, 0, 0, 0, 0, 0, 0, 0, 0, 0, 0, 0, 0, 0, 0, 0, 0, 0, 0, 0, 0, 0, 0, 0, 0, 0, 0, 0, 0, 0, 0, 0, 0, 0, 0, 0, 0, 0, 0, 0, 0, 0, 0, 0, 0, 0, 0, 0, 0, 0, 0
0, 0, 21, 4, 2, 7, 7, 23, 33, 52, 119, 86, 150, 135, 174, 188, 197, 201, 246, 236, 241, 272, 249, 244, 248, 276, 244, 216, 221, 219, 204, 196, 177, 166, 164, 140, 118, 133, 115, 85, 72, 78, 60, 52, 58, 20, 2, 0, 0, 0, 0, 0, 0, 0, 0, 0, 0, 0, 0, 0, 0, 0, 0, 0, 0, 0, 0, 0, 0, 0, 0, 0, 0, 0, 0, 0, 0, 0, 0, 0, 0, 0, 0, 0, 0, 0, 0, 0, 0, 0, 0, 0, 0, 0, 0, 0, 0, 0, 0, 0, 0, 0, 0, 0, 0, 0
0, 0, 22, 5, 4, 4, 15, 25, 29, 59, 114, 81, 115, 138, 163, 206, 203, 214, 223, 241, 211, 257, 261, 210, 233, 267, 225, 233, 214, 204, 184, 225, 189, 174, 162, 154, 119, 153, 81, 86, 109, 68, 73, 69, 42, 19, 2, 0, 0, 0, 0, 0, 0, 0, 0, 0, 0, 0, 0, 0, 0, 0, 0, 0, 0, 0, 0, 0, 0, 0, 0, 0, 0, 0, 0, 0, 0, 0, 0, 0, 0, 0, 0, 0, 0, 0, 0, 0, 0, 0, 0, 0, 0, 0, 0, 0, 0, 0, 0, 0, 0, 0, 0, 0, 0, 0
0, 0, 23, 1, 2, 8, 10, 17, 41, 57, 142, 110, 107, 131, 176, 201, 179, 181, 210, 242, 236, 285, 247, 252, 236, 213, 217, 226, 210, 216, 235, 198, 174, 175, 155, 143, 144, 129, 128, 99, 85, 85, 67, 50, 35, 24, 1, 0, 0, 0, 0, 0, 0, 0, 0, 0, 0, 0, 0, 0, 0, 0, 0, 0, 0, 0, 0, 0, 0, 0, 0, 0, 0, 0, 0, 0, 0, 0, 0, 0, 0, 0, 0, 0, 0, 0, 0, 0, 0, 0, 0, 0, 0, 0, 0, 0, 0, 0, 0, 0, 0, 0, 0, 0, 0, 0
0, 0, 24, 3, 4, 12, 14, 19, 41, 52, 115, 109, 119, 135, 157, 197, 202, 243, 216, 246, 224, 241, 277, 223, 240, 211, 223, 187, 217, 213, 216, 187, 158, 180, 167, 159, 149, 117, 117, 99, 95, 73, 69, 62, 42, 33, 3, 0, 0, 0, 0, 0, 0, 0, 0, 0, 0, 0, 0, 0, 0, 0, 0, 0, 0, 0, 0, 0, 0, 0, 0, 0, 0, 0, 0, 0, 0, 0, 0, 0, 0, 0, 0, 0, 0, 0, 0, 0, 0, 0, 0, 0, 0, 0, 0, 0, 0, 0, 0, 0, 0, 0, 0, 0, 0, 0
0, 0, 25, 3, 2, 6, 15, 30, 50, 59, 114, 112, 123, 165, 171, 171, 205, 207, 244, 266, 243, 265, 253, 232, 208, 274, 237, 241, 204, 223, 187, 206, 155, 184, 133, 127, 144, 115, 93, 106, 66, 72, 69, 54, 37, 26, 3, 0, 0, 0, 0, 0, 0, 0, 0, 0, 0, 0, 0, 0, 0, 0, 0, 0, 0, 0, 0, 0, 0, 0, 0, 0, 0, 0, 0, 0, 0, 0, 0, 0, 0, 0, 0, 0, 0, 0, 0, 0, 0, 0, 0, 0, 0, 0, 0, 0, 0, 0, 0, 0, 0, 0, 0, 0, 0, 0
0, 0, 26, 4, 3, 8, 10, 24, 40, 56, 115, 87, 147, 129, 178, 202, 205, 227, 240, 239, 276, 223, 253, 259, 234, 214, 236, 196, 215, 220, 210, 183, 169, 174, 159, 140, 129, 117, 120, 104, 94, 87, 81, 65, 34, 9, 3, 0, 0, 0, 0, 0, 0, 0, 0, 0, 0, 0, 0, 0, 0, 0, 0, 0, 0, 0, 0, 0, 0, 0, 0, 0, 0, 0, 0, 0, 0, 0, 0, 0, 0, 0, 0, 0, 0, 0, 0, 0, 0, 0, 0, 0, 0, 0, 0, 0, 0, 0, 0, 0, 0, 0, 0, 0, 0, 0
0, 0, 27, 4, 4, 9, 12, 39, 37, 66, 117, 88, 119, 156, 173, 212, 219, 220, 252, 218, 285, 237, 237, 236, 233, 247, 240, 226, 218, 263, 214, 241, 152, 149, 141, 175, 125, 142, 107, 99, 94, 63, 72, 51, 39, 23, 1, 0, 0, 0, 0, 0, 0, 0, 0, 0, 0, 0, 0, 0, 0, 0, 0, 0, 0, 0, 0, 0, 0, 0, 0, 0, 0, 0, 0, 0, 0, 0, 0, 0, 0, 0, 0, 0, 0, 0, 0, 0, 0, 0, 0, 0, 0, 0, 0, 0, 0, 0, 0, 0, 0, 0, 0, 0, 0, 0
0, 0, 28, 6, 3, 9, 15, 22, 38, 57, 139, 83, 103, 137, 188, 192, 225, 216, 214, 228, 237, 234, 239, 264, 273, 253, 226, 234, 211, 230, 195, 200, 192, 178, 170, 151, 125, 127, 118, 94, 83, 97, 62, 48, 45, 18, 0, 0, 0, 0, 0, 0, 0, 0, 0, 0, 0, 0, 0, 0, 0, 0, 0, 0, 0, 0, 0, 0, 0, 0, 0, 0, 0, 0, 0, 0, 0, 0, 0, 0, 0, 0, 0, 0, 0, 0, 0, 0, 0, 0, 0, 0, 0, 0, 0, 0, 0, 0, 0, 0, 0, 0, 0, 0, 0, 0
0, 0, 29, 3, 4, 10, 12, 24, 42, 58, 132, 95, 114, 161, 190, 208, 170, 193, 235, 239, 243, 231, 252, 246, 252, 259, 242, 261, 228, 194, 237, 204, 184, 185, 159, 163, 130, 126, 120, 131, 116, 73, 74, 49, 34, 23, 1, 0, 0, 0, 0, 0, 0, 0, 0, 0, 0, 0, 0, 0, 0, 0, 0, 0, 0, 0, 0, 0, 0, 0, 0, 0, 0, 0, 0, 0, 0, 0, 0, 0, 0, 0, 0, 0, 0, 0, 0, 0, 0, 0, 0, 0, 0, 0, 0, 0, 0, 0, 0, 0, 0, 0, 0, 0, 0, 0
0, 0, 30, 6, 3, 9, 17, 24, 46, 59, 127, 82, 103, 152, 160, 199, 197, 213, 228, 223, 234, 271, 249, 232, 219, 259, 231, 231, 215, 197, 184, 182, 184, 164, 156, 140, 152, 109, 121, 108, 96, 87, 65, 55, 35, 32, 2, 0, 0, 0, 0, 0, 0, 0, 0, 0, 0, 0, 0, 0, 0, 0, 0, 0, 0, 0, 0, 0, 0, 0, 0, 0, 0, 0, 0, 0, 0, 0, 0, 0, 0, 0, 0, 0, 0, 0, 0, 0, 0, 0, 0, 0, 0, 0, 0, 0, 0, 0, 0, 0, 0, 0, 0, 0, 0, 0
0, 0, 31, 11, 9, 7, 13, 31, 32, 66, 130, 81, 121, 127, 149, 181, 215, 238, 218, 237, 287, 255, 225, 250, 223, 237, 215, 220, 211, 208, 193, 186, 175, 176, 159, 131, 129, 119, 115, 106, 94, 65, 78, 57, 35, 17, 0, 0, 0, 0, 0, 0, 0, 0, 0, 0, 0, 0, 0, 0, 0, 0, 0, 0, 0, 0, 0, 0, 0, 0, 0, 0, 0, 0, 0, 0, 0, 0, 0, 0, 0, 0, 0, 0, 0, 0, 0, 0, 0, 0, 0, 0, 0, 0, 0, 0, 0, 0, 0, 0, 0, 0, 0, 0, 0, 0
0, 0, 32, 1, 4, 7, 16, 21, 51, 48, 119, 87, 125, 169, 181, 217, 201, 206, 220, 232, 226, 268, 257, 223, 220, 233, 255, 188, 219, 195, 220, 209, 179, 163, 155, 136, 135, 116, 120, 89, 93, 88, 77, 52, 51, 15, 1, 0, 0, 0, 0, 0, 0, 0, 0, 0, 0, 0, 0, 0, 0, 0, 0, 0, 0, 0, 0, 0, 0, 0, 0, 0, 0, 0, 0, 0, 0, 0, 0, 0, 0, 0, 0, 0, 0, 0, 0, 0, 0, 0, 0, 0, 0, 0, 0, 0, 0, 0, 0, 0, 0, 0, 0, 0, 0, 0
0, 0, 33, 3, 5, 4, 11, 23, 43, 51, 120, 106, 134, 137, 161, 198, 211, 222, 218, 263, 254, 253, 212, 248, 233, 255, 234, 211, 215, 212, 184, 197, 198, 147, 133, 140, 136, 128, 128, 95, 101, 75, 57, 50, 39, 17, 3, 0, 0, 0, 0, 0, 0, 0, 0, 0, 0, 0, 0, 0, 0, 0, 0, 0, 0, 0, 0, 0, 0, 0, 0, 0, 0, 0, 0, 0, 0, 0, 0, 0, 0, 0, 0, 0, 0, 0, 0, 0, 0, 0, 0, 0, 0, 0, 0, 0, 0, 0, 0, 0, 0, 0, 0, 0, 0, 0
0, 0, 34, 3, 2, 8, 14, 31, 37, 45, 110, 107, 101, 143, 174, 203, 184, 225, 222, 260, 247, 252, 267, 248, 235, 219, 235, 208, 239, 199, 208, 177, 180, 178, 146, 151, 132, 125, 107, 100, 78, 71, 53, 58, 34, 19, 1, 0, 0, 0, 0, 0, 0, 0, 0, 0, 0, 0, 0, 0, 0, 0, 0, 0, 0, 0, 0, 0, 0, 0, 0, 0, 0, 0, 0, 0, 0, 0, 0, 0, 0, 0, 0, 0, 0, 0, 0, 0, 0, 0, 0, 0, 0, 0, 0, 0, 0, 0, 0, 0, 0, 0, 0, 0, 0, 0
0, 0, 35, 3, 3, 11, 19, 26, 41, 63, 124, 87, 124, 135, 155, 196, 211, 188, 232, 231, 230, 271, 263, 280, 230, 232, 231, 211, 212, 211, 198, 172, 168, 179, 144, 128, 137, 148, 120, 105, 104, 74, 59, 52, 44, 30, 2, 0, 0, 0, 0, 0, 0, 0, 0, 0, 0, 0, 0, 0, 0, 0, 0, 0, 0, 0, 0, 0, 0, 0, 0, 0, 0, 0, 0, 0, 0, 0, 0, 0, 0, 0, 0, 0, 0, 0, 0, 0, 0, 0, 0, 0, 0, 0, 0, 0, 0, 0, 0, 0, 0, 0, 0, 0, 0, 0
0, 0, 36, 4, 4, 6, 22, 21, 47, 56, 111, 101, 110, 166, 175, 211, 197, 194, 224, 202, 247, 245, 242, 227, 259, 228, 245, 235, 219, 216, 193, 166, 178, 149, 163, 142, 150, 134, 118, 96, 110, 74, 70, 64, 39, 30, 1, 0, 0, 0, 0, 0, 0, 0, 0, 0, 0, 0, 0, 0, 0, 0, 0, 0, 0, 0, 0, 0, 0, 0, 0, 0, 0, 0, 0, 0, 0, 0, 0, 0, 0, 0, 0, 0, 0, 0, 0, 0, 0, 0, 0, 0, 0, 0, 0, 0, 0, 0, 0, 0, 0, 0, 0, 0, 0, 0
0, 0, 37, 1, 3, 9, 16, 27, 33, 48, 113, 109, 132, 137, 169, 199, 210, 211, 214, 225, 273, 277, 254, 258, 239, 244, 212, 202, 203, 186, 201, 186, 213, 172, 168, 117, 139, 103, 120, 112, 90, 89, 61, 49, 39, 24, 3, 0, 0, 0, 0, 0, 0, 0, 0, 0, 0, 0, 0, 0, 0, 0, 0, 0, 0, 0, 0, 0, 0, 0, 0, 0, 0, 0, 0, 0, 0, 0, 0, 0, 0, 0, 0, 0, 0, 0, 0, 0, 0, 0, 0, 0, 0, 0, 0, 0, 0, 0, 0, 0, 0, 0, 0, 0, 0, 0
0, 0, 38, 4, 3, 11, 18, 21, 43, 42, 131, 85, 102, 144, 161, 188, 216, 202, 216, 284, 257, 250, 263, 274, 241, 233, 234, 229, 199, 194, 195, 203, 159, 180, 165, 131, 119, 121, 110, 108, 100, 76, 52, 45, 44, 22, 2, 0, 0, 0, 0, 0, 0, 0, 0, 0, 0, 0, 0, 0, 0, 0, 0, 0, 0, 0, 0, 0, 0, 0, 0, 0, 0, 0, 0, 0, 0, 0, 0, 0, 0, 0, 0, 0, 0, 0, 0, 0, 0, 0, 0, 0, 0, 0, 0, 0, 0, 0, 0, 0, 0, 0, 0, 0, 0, 0
0, 0, 39, 4, 2, 5, 13, 21, 52, 63, 102, 103, 89, 147, 188, 211, 230, 239, 240, 257, 252, 232, 263, 254, 258, 264, 244, 233, 255, 214, 184, 206, 177, 167, 155, 132, 160, 145, 132, 98, 77, 55, 70, 54, 41, 13, 1, 0, 0, 0, 0, 0, 0, 0, 0, 0, 0, 0, 0, 0, 0, 0, 0, 0, 0, 0, 0, 0, 0, 0, 0, 0, 0, 0, 0, 0, 0, 0, 0, 0, 0, 0, 0, 0, 0, 0, 0, 0, 0, 0, 0, 0, 0, 0, 0, 0, 0, 0, 0, 0, 0, 0, 0, 0, 0, 0
0, 0, 40, 6, 0, 6, 10, 24, 40, 58, 110, 109, 112, 158, 155, 220, 218, 206, 226, 258, 234, 243, 242, 245, 282, 239, 250, 218, 251, 212, 233, 201, 192, 185, 173, 146, 144, 130, 118, 103, 101, 88, 73, 51, 37, 30, 0, 0, 0, 0, 0, 0, 0, 0, 0, 0, 0, 0, 0, 0, 0, 0, 0, 0, 0, 0, 0, 0, 0, 0, 0, 0, 0, 0, 0, 0, 0, 0, 0, 0, 0, 0, 0, 0, 0, 0, 0, 0, 0, 0, 0, 0, 0, 0, 0, 0, 0, 0, 0, 0, 0, 0, 0, 0, 0, 0
0, 0, 41, 1, 2, 5, 18, 19, 45, 35, 109, 103, 114, 150, 157, 220, 181, 205, 211, 207, 235, 232, 232, 191, 239, 230, 215, 238, 210, 205, 203, 163, 154, 171, 138, 143, 138, 116, 87, 95, 66, 63, 68, 62, 39, 18, 0, 0, 0, 0, 0, 0, 0, 0, 0, 0, 0, 0, 0, 0, 0, 0, 0, 0, 0, 0, 0, 0, 0, 0, 0, 0, 0, 0, 0, 0, 0, 0, 0, 0, 0, 0, 0, 0, 0, 0, 0, 0, 0, 0, 0, 0, 0, 0, 0, 0, 0, 0, 0, 0, 0, 0, 0, 0, 0, 0
0, 0, 42, 2, 2, 5, 8, 13, 35, 46, 70, 64, 87, 90, 140, 164, 167, 166, 185, 170, 191, 220, 218, 190, 186, 209, 201, 159, 193, 182, 168, 140, 157, 118, 138, 113, 130, 105, 88, 86, 71, 59, 49, 54, 27, 14, 1, 0, 0, 0, 0, 0, 0, 0, 0, 0, 0, 0, 0, 0, 0, 0, 0, 0, 0, 0, 0, 0, 0, 0, 0, 0, 0, 0, 0, 0, 0, 0, 0, 0, 0, 0, 0, 0, 0, 0, 0, 0, 0, 0, 0, 0, 0, 0, 0, 0, 0, 0, 0, 0, 0, 0, 0, 0, 0, 0
0, 0, 43, 2, 2, 8, 8, 9, 23, 33, 65, 61, 63, 89, 89, 116, 123, 142, 156, 165, 181, 168, 169, 155, 165, 161, 185, 165, 175, 169, 154, 136, 124, 115, 122, 104, 103, 103, 75, 80, 67, 69, 58, 39, 40, 18, 0, 0, 0, 0, 0, 0, 0, 0, 0, 0, 0, 0, 0, 0, 0, 0, 0, 0, 0, 0, 0, 0, 0, 0, 0, 0, 0, 0, 0, 0, 0, 0, 0, 0, 0, 0, 0, 0, 0, 0, 0, 0, 0, 0, 0, 0, 0, 0, 0, 0, 0, 0, 0, 0, 0, 0, 0, 0, 0, 0
0, 0, 44, 1, 2, 3, 5, 7, 10, 31, 53, 42, 51, 50, 62, 98, 100, 115, 127, 142, 126, 127, 112, 157, 162, 157, 144, 144, 154, 116, 131, 123, 96, 95, 105, 91, 90, 86, 65, 59, 68, 55, 39, 32, 21, 8, 2, 0, 0, 0, 0, 0, 0, 0, 0, 0, 0, 0, 0, 0, 0, 0, 0, 0, 0, 0, 0, 0, 0, 0, 0, 0, 0, 0, 0, 0, 0, 0, 0, 0, 0, 0, 0, 0, 0, 0, 0, 0, 0, 0, 0, 0, 0, 0, 0, 0, 0, 0, 0, 0, 0, 0, 0, 0, 0, 0
0, 0, 45, 1, 2, 0, 4, 6, 8, 14, 40, 37, 46, 43, 55, 86, 67, 85, 91, 103, 115, 126, 120, 132, 125, 122, 118, 122, 116, 106, 103, 109, 86, 96, 85, 96, 90, 80, 64, 68, 52, 47, 49, 29, 22, 11, 1, 0, 0, 0, 0, 0, 0, 0, 0, 0, 0, 0, 0, 0, 0, 0, 0, 0, 0, 0, 0, 0, 0, 0, 0, 0, 0, 0, 0, 0, 0, 0, 0, 0, 0, 0, 0, 0, 0, 0, 0, 0, 0, 0, 0, 0, 0, 0, 0, 0, 0, 0, 0, 0, 0, 0, 0, 0, 0, 0
0, 0, 46, 0, 0, 0, 3, 4, 8, 12, 39, 17, 31, 30, 66, 57, 78, 76, 77, 93, 98, 75, 96, 123, 113, 120, 107, 106, 113, 101, 98, 77, 79, 90, 78, 74, 61, 65, 63, 48, 53, 32, 32, 21, 18, 11, 0, 0, 0, 0, 0, 0, 0, 0, 0, 0, 0, 0, 0, 0, 0, 0, 0, 0, 0, 0, 0, 0, 0, 0, 0, 0, 0, 0, 0, 0, 0, 0, 0, 0, 0, 0, 0, 0, 0, 0, 0, 0, 0, 0, 0, 0, 0, 0, 0, 0, 0, 0, 0, 0, 0, 0, 0, 0, 0, 0
0, 0, 47, 0, 0, 1, 1, 1, 5, 12, 33, 15, 20, 37, 36, 53, 62, 76, 78, 84, 80, 96, 74, 94, 90, 86, 96, 95, 74, 86, 96, 97, 78, 68, 68, 73, 54, 56, 73, 48, 37, 38, 40, 29, 15, 5, 0, 0, 0, 0, 0, 0, 0, 0, 0, 0, 0, 0, 0, 0, 0, 0, 0, 0, 0, 0, 0, 0, 0, 0, 0, 0, 0, 0, 0, 0, 0, 0, 0, 0, 0, 0, 0, 0, 0, 0, 0, 0, 0, 0, 0, 0, 0, 0, 0, 0, 0, 0, 0, 0, 0, 0, 0, 0, 0, 0
0, 0, 48, 0, 2, 0, 0, 4, 6, 2, 20, 23, 8, 29, 32, 43, 43, 46, 68, 74, 81, 63, 65, 92, 90, 79, 88, 83, 76, 70, 96, 70, 77, 80, 75, 67, 68, 48, 48, 60, 45, 42, 37, 29, 15, 9, 0, 0, 0, 0, 0, 0, 0, 0, 0, 0, 0, 0, 0, 0, 0, 0, 0, 0, 0, 0, 0, 0, 0, 0, 0, 0, 0, 0, 0, 0, 0, 0, 0, 0, 0, 0, 0, 0, 0, 0, 0, 0, 0, 0, 0, 0, 0, 0, 0, 0, 0, 0, 0, 0, 0, 0, 0, 0, 0, 0
0, 0, 49, 1, 0, 0, 0, 0, 2, 4, 15, 12, 18, 38, 38, 43, 44, 37, 53, 65, 72, 59, 61, 80, 61, 93, 77, 87, 81, 92, 81, 80, 75, 63, 77, 56, 43, 57, 53, 53, 37, 35, 33, 18, 20, 9, 0, 0, 0, 0, 0, 0, 0, 0, 0, 0, 0, 0, 0, 0, 0, 0, 0, 0, 0, 0, 0, 0, 0, 0, 0, 0, 0, 0, 0, 0, 0, 0, 0, 0, 0, 0, 0, 0, 0, 0, 0, 0, 0, 0, 0, 0, 0, 0, 0, 0, 0, 0, 0, 0, 0, 0, 0, 0, 0, 0
0, 0, 50, 3, 0, 0, 0, 2, 1, 3, 29, 12, 17, 34, 26, 37, 26, 41, 60, 62, 63, 78, 84, 79, 81, 79, 80, 90, 85, 94, 69, 70, 60, 79, 66, 51, 57, 46, 52, 32, 39, 42, 35, 20, 21, 13, 1, 0, 0, 0, 0, 0, 0, 0, 0, 0, 0, 0, 0, 0, 0, 0, 0, 0, 0, 0, 0, 0, 0, 0, 0, 0, 0, 0, 0, 0, 0, 0, 0, 0, 0, 0, 0, 0, 0, 0, 0, 0, 0, 0, 0, 0, 0, 0, 0, 0, 0, 0, 0, 0, 0, 0, 0, 0, 0, 0
0, 0, 51, 3, 2, 0, 0, 0, 2, 6, 24, 16, 21, 26, 31, 54, 54, 51, 64, 64, 92, 72, 91, 88, 79, 73, 69, 90, 80, 83, 81, 72, 72, 60, 66, 64, 61, 58, 48, 51, 42, 39, 29, 28, 20, 5, 2, 0, 0, 0, 0, 0, 0, 0, 0, 0, 0, 0, 0, 0, 0, 0, 0, 0, 0, 0, 0, 0, 0, 0, 0, 0, 0, 0, 0, 0, 0, 0, 0, 0, 0, 0, 0, 0, 0, 0, 0, 0, 0, 0, 0, 0, 0, 0, 0, 0, 0, 0, 0, 0, 0, 0, 0, 0, 0, 0
0, 0, 52, 0, 0, 0, 4, 2, 11, 9, 32, 17, 22, 32, 35, 58, 57, 61, 86, 79, 79, 86, 86, 108, 90, 97, 84, 103, 76, 106, 90, 94, 81, 74, 63, 43, 72, 53, 45, 43, 40, 29, 37, 19, 22, 15, 0, 0, 0, 0, 0, 0, 0, 0, 0, 0, 0, 0, 0, 0, 0, 0, 0, 0, 0, 0, 0, 0, 0, 0, 0, 0, 0, 0, 0, 0, 0, 0, 0, 0, 0, 0, 0, 0, 0, 0, 0, 0, 0, 0, 0, 0, 0, 0, 0, 0, 0, 0, 0, 0, 0, 0, 0, 0, 0, 0
0, 0, 53, 2, 3, 0, 1, 10, 6, 11, 28, 22, 38, 34, 43, 56, 52, 62, 104, 70, 87, 89, 90, 113, 89, 85, 98, 86, 119, 112, 96, 88, 87, 98, 83, 69, 77, 60, 51, 52, 35, 50, 32, 27, 21, 8, 0, 0, 0, 0, 0, 0, 0, 0, 0, 0, 0, 0, 0, 0, 0, 0, 0, 0, 0, 0, 0, 0, 0, 0, 0, 0, 0, 0, 0, 0, 0, 0, 0, 0, 0, 0, 0, 0, 0, 0, 0, 0, 0, 0, 0, 0, 0, 0, 0, 0, 0, 0, 0, 0, 0, 0, 0, 0, 0, 0
0, 0, 54, 1, 3, 1, 2, 5, 11, 20, 45, 30, 42, 55, 82, 83, 82, 97, 88, 109, 145, 135, 111, 116, 157, 116, 106, 103, 103, 103, 112, 118, 112, 105, 104, 89, 74, 71, 73, 62, 50, 48, 42, 30, 27, 6, 2, 0, 0, 0, 0, 0, 0, 0, 0, 0, 0, 0, 0, 0, 0, 0, 0, 0, 0, 0, 0, 0, 0, 0, 0, 0, 0, 0, 0, 0, 0, 0, 0, 0, 0, 0, 0, 0, 0, 0, 0, 0, 0, 0, 0, 0, 0, 0, 0, 0, 0, 0, 0, 0, 0, 0, 0, 0, 0, 0
0, 0, 55, 0, 0, 2, 7, 6, 16, 23, 62, 43, 54, 64, 89, 98, 113, 92, 114, 117, 136, 155, 138, 125, 137, 121, 134, 133, 120, 143, 149, 119, 128, 122, 105, 87, 95, 85, 85, 66, 50, 49, 64, 35, 27, 20, 2, 0, 0, 0, 0, 0, 0, 0, 0, 0, 0, 0, 0, 0, 0, 0, 0, 0, 0, 0, 0, 0, 0, 0, 0, 0, 0, 0, 0, 0, 0, 0, 0, 0, 0, 0, 0, 0, 0, 0, 0, 0, 0, 0, 0, 0, 0, 0, 0, 0, 0, 0, 0, 0, 0, 0, 0, 0, 0, 0
0, 0, 56, 2, 5, 4, 11, 19, 15, 26, 55, 45, 64, 99, 95, 119, 150, 131, 146, 160, 162, 159, 181, 150, 183, 167, 152, 158, 156, 137, 151, 153, 135, 97, 107, 94, 102, 81, 69, 78, 60, 51, 50, 36, 37, 24, 0, 0, 0, 0, 0, 0, 0, 0, 0, 0, 0, 0, 0, 0, 0, 0, 0, 0, 0, 0, 0, 0, 0, 0, 0, 0, 0, 0, 0, 0, 0, 0, 0, 0, 0, 0, 0, 0, 0, 0, 0, 0, 0, 0, 0, 0, 0, 0, 0, 0, 0, 0, 0, 0, 0, 0, 0, 0, 0, 0
0, 0, 57, 2, 1, 9, 10, 21, 27, 34, 69, 81, 95, 118, 123, 126, 151, 167, 155, 214, 216, 182, 246, 207, 185, 203, 191, 209, 161, 163, 180, 134, 154, 148, 147, 110, 107, 100, 122, 89, 50, 64, 49, 48, 44, 15, 2, 0, 0, 0, 0, 0, 0, 0, 0, 0, 0, 0, 0, 0, 0, 0, 0, 0, 0, 0, 0, 0, 0, 0, 0, 0, 0, 0, 0, 0, 0, 0, 0, 0, 0, 0, 0, 0, 0, 0, 0, 0, 0, 0, 0, 0, 0, 0, 0, 0, 0, 0, 0, 0, 0, 0, 0, 0, 0, 0
0, 0, 58, 2, 0, 3, 14, 24, 35, 62, 90, 98, 103, 140, 171, 150, 183, 229, 224, 245, 230, 216, 265, 247, 203, 211, 221, 200, 204, 192, 184, 155, 154, 197, 140, 145, 143, 112, 89, 90, 86, 73, 76, 49, 38, 17, 0, 0, 0, 0, 0, 0, 0, 0, 0, 0, 0, 0, 0, 0, 0, 0, 0, 0, 0, 0, 0, 0, 0, 0, 0, 0, 0, 0, 0, 0, 0, 0, 0, 0, 0, 0, 0, 0, 0, 0, 0, 0, 0, 0, 0, 0, 0, 0, 0, 0, 0, 0, 0, 0, 0, 0, 0, 0, 0, 0
0, 0, 59, 2, 5, 7, 13, 25, 39, 54, 121, 110, 127, 136, 157, 193, 226, 211, 236, 236, 283, 268, 267, 246, 244, 251, 236, 231, 221, 196, 184, 182, 187, 169, 159, 146, 134, 107, 111, 93, 101, 64, 62, 51, 44, 18, 3, 0, 0, 0, 0, 0, 0, 0, 0, 0, 0, 0, 0, 0, 0, 0, 0, 0, 0, 0, 0, 0, 0, 0, 0, 0, 0, 0, 0, 0, 0, 0, 0, 0, 0, 0, 0, 0, 0, 0, 0, 0, 0, 0, 0, 0, 0, 0, 0, 0, 0, 0, 0, 0, 0, 0, 0, 0, 0, 0
0, 0, 60, 4, 3, 4, 20, 28, 51, 51, 109, 103, 119, 134, 175, 168, 192, 208, 245, 203, 259, 277, 215, 248, 220, 241, 229, 256, 241, 233, 210, 179, 205, 132, 180, 142, 132, 132, 117, 97, 83, 80, 70, 64, 42, 22, 1, 0, 0, 0, 0, 0, 0, 0, 0, 0, 0, 0, 0, 0, 0, 0, 0, 0, 0, 0, 0, 0, 0, 0, 0, 0, 0, 0, 0, 0, 0, 0, 0, 0, 0, 0, 0, 0, 0, 0, 0, 0, 0, 0, 0, 0, 0, 0, 0, 0, 0, 0, 0, 0, 0, 0, 0, 0, 0, 0
0, 0, 61, 3, 7, 8, 16, 25, 47, 42, 118, 84, 105, 155, 171, 174, 189, 200, 242, 244, 255, 237, 272, 247, 238, 262, 253, 216, 207, 200, 214, 188, 172, 159, 144, 154, 125, 128, 102, 123, 80, 68, 73, 68, 51, 16, 1, 0, 0, 0, 0, 0, 0, 0, 0, 0, 0, 0, 0, 0, 0, 0, 0, 0, 0, 0, 0, 0, 0, 0, 0, 0, 0, 0, 0, 0, 0, 0, 0, 0, 0, 0, 0, 0, 0, 0, 0, 0, 0, 0, 0, 0, 0, 0, 0, 0, 0, 0, 0, 0, 0, 0, 0, 0, 0, 0
0, 0, 62, 3, 3, 9, 15, 28, 51, 73, 115, 98, 131, 155, 197, 200, 258, 214, 237, 229, 238, 238, 227, 265, 227, 265, 254, 253, 231, 220, 211, 202, 178, 147, 151, 123, 147, 116, 121, 118, 93, 99, 63, 50, 45, 14, 1, 0, 0, 0, 0, 0, 0, 0, 0, 0, 0, 0, 0, 0, 0, 0, 0, 0, 0, 0, 0, 0, 0, 0, 0, 0, 0, 0, 0, 0, 0, 0, 0, 0, 0, 0, 0, 0, 0, 0, 0, 0, 0, 0, 0, 0, 0, 0, 0, 0, 0, 0, 0, 0, 0, 0, 0, 0, 0, 0
0, 0, 63, 1, 0, 6, 14, 21, 49, 71, 111, 87, 128, 155, 189, 226, 230, 214, 247, 227, 271, 263, 244, 254, 261, 226, 206, 214, 211, 215, 222, 200, 179, 167, 195, 154, 154, 133, 128, 97, 98, 80, 61, 50, 49, 15, 3, 0, 0, 0, 0, 0, 0, 0, 0, 0, 0, 0, 0, 0, 0, 0, 0, 0, 0, 0, 0, 0, 0, 0, 0, 0, 0, 0, 0, 0, 0, 0, 0, 0, 0, 0, 0, 0, 0, 0, 0, 0, 0, 0, 0, 0, 0, 0, 0, 0, 0, 0, 0, 0, 0, 0, 0, 0, 0, 0
0, 0, 64, 3, 4, 4, 11, 29, 46, 70, 121, 90, 110, 142, 172, 218, 194, 180, 211, 215, 249, 276, 248, 240, 241, 227, 202, 189, 197, 212, 186, 188, 181, 145, 155, 159, 117, 126, 124, 91, 86, 87, 76, 64, 39, 18, 0, 0, 0, 0, 0, 0, 0, 0, 0, 0, 0, 0, 0, 0, 0, 0, 0, 0, 0, 0, 0, 0, 0, 0, 0, 0, 0, 0, 0, 0, 0, 0, 0, 0, 0, 0, 0, 0, 0, 0, 0, 0, 0, 0, 0, 0, 0, 0, 0, 0, 0, 0, 0, 0, 0, 0, 0, 0, 0, 0
0, 0, 65, 1, 3, 5, 20, 28, 42, 66, 119, 82, 106, 163, 166, 184, 189, 223, 221, 240, 250, 248, 265, 237, 264, 244, 240, 247, 247, 177, 183, 208, 180, 145, 135, 143, 141, 129, 124, 97, 71, 83, 76, 56, 36, 26, 2, 0, 0, 0, 0, 0, 0, 0, 0, 0, 0, 0, 0, 0, 0, 0, 0, 0, 0, 0, 0, 0, 0, 0, 0, 0, 0, 0, 0, 0, 0, 0, 0, 0, 0, 0, 0, 0, 0, 0, 0, 0, 0, 0, 0, 0, 0, 0, 0, 0, 0, 0, 0, 0, 0, 0, 0, 0, 0, 0
0, 0, 66, 2, 2, 8, 11, 25, 29, 47, 112, 110, 109, 153, 153, 224, 200, 224, 205, 242, 235, 240, 244, 256, 227, 252, 221, 241, 223, 202, 166, 177, 195, 185, 148, 160, 147, 154, 121, 103, 73, 72, 53, 74, 34, 15, 3, 0, 0, 0, 0, 0, 0, 0, 0, 0, 0, 0, 0, 0, 0, 0, 0, 0, 0, 0, 0, 0, 0, 0, 0, 0, 0, 0, 0, 0, 0, 0, 0, 0, 0, 0, 0, 0, 0, 0, 0, 0, 0, 0, 0, 0, 0, 0, 0, 0, 0, 0, 0, 0, 0, 0, 0, 0, 0, 0
0, 0, 67, 1, 2, 10, 27, 29, 40, 59, 115, 112, 106, 152, 201, 182, 187, 202, 221, 255, 240, 226, 274, 233, 252, 249, 265, 257, 230, 208, 212, 199, 168, 154, 174, 140, 129, 120, 127, 92, 84, 94, 70, 55, 37, 27, 3, 0, 0, 0, 0, 0, 0, 0, 0, 0, 0, 0, 0, 0, 0, 0, 0, 0, 0, 0, 0, 0, 0, 0, 0, 0, 0, 0, 0, 0, 0, 0, 0, 0, 0, 0, 0, 0, 0, 0, 0, 0, 0, 0, 0, 0, 0, 0, 0, 0, 0, 0, 0, 0, 0, 0, 0, 0, 0, 0
0, 0, 68, 0, 2, 8, 12, 15, 41, 42, 111, 85, 126, 143, 186, 207, 213, 231, 237, 244, 246, 255, 234, 217, 269, 253, 226, 216, 227, 211, 223, 197, 200, 170, 147, 149, 142, 138, 106, 83, 83, 85, 68, 60, 43, 18, 0, 0, 0, 0, 0, 0, 0, 0, 0, 0, 0, 0, 0, 0, 0, 0, 0, 0, 0, 0, 0, 0, 0, 0, 0, 0, 0, 0, 0, 0, 0, 0, 0, 0, 0, 0, 0, 0, 0, 0, 0, 0, 0, 0, 0, 0, 0, 0, 0, 0, 0, 0, 0, 0, 0, 0, 0, 0, 0, 0
0, 0, 69, 0, 2, 4, 19, 22, 46, 62, 131, 96, 120, 145, 181, 204, 200, 210, 230, 243, 258, 258, 251, 235, 263, 225, 243, 266, 195, 206, 203, 191, 153, 162, 152, 155, 149, 128, 123, 92, 101, 89, 69, 51, 41, 23, 2, 0, 0, 0, 0, 0, 0, 0, 0, 0, 0, 0, 0, 0, 0, 0, 0, 0, 0, 0, 0, 0, 0, 0, 0, 0, 0, 0, 0, 0, 0, 0, 0, 0, 0, 0, 0, 0, 0, 0, 0, 0, 0, 0, 0, 0, 0, 0, 0, 0, 0, 0, 0, 0, 0, 0, 0, 0, 0, 0
0, 0, 70, 3, 3, 7, 23, 34, 28, 61, 102, 95, 113, 173, 188, 206, 189, 196, 235, 220, 246, 251, 256, 283, 238, 239, 239, 227, 220, 234, 222, 207, 158, 185, 144, 147, 134, 128, 109, 94, 81, 75, 69, 58, 34, 23, 1, 0, 0, 0, 0, 0, 0, 0, 0, 0, 0, 0, 0, 0, 0, 0, 0, 0, 0, 0, 0, 0, 0, 0, 0, 0, 0, 0, 0, 0, 0, 0, 0, 0, 0, 0, 0, 0, 0, 0, 0, 0, 0, 0, 0, 0, 0, 0, 0, 0, 0, 0, 0, 0, 0, 0, 0, 0, 0, 0
0, 0, 71, 3, 4, 5, 15, 19, 46, 58, 108, 93, 103, 151, 164, 205, 180, 216, 226, 255, 234, 239, 279, 232, 260, 245, 241, 220, 228, 199, 190, 184, 192, 160, 168, 154, 122, 117, 110, 101, 99, 76, 79, 60, 36, 21, 0, 0, 0, 0, 0, 0, 0, 0, 0, 0, 0, 0, 0, 0, 0, 0, 0, 0, 0, 0, 0, 0, 0, 0, 0, 0, 0, 0, 0, 0, 0, 0, 0, 0, 0, 0, 0, 0, 0, 0, 0, 0, 0, 0, 0, 0, 0, 0, 0, 0, 0, 0, 0, 0, 0, 0, 0, 0, 0, 0
0, 0, 72, 3, 3, 11, 15, 31, 46, 61, 145, 88, 108, 175, 169, 187, 207, 217, 246, 245, 238, 254, 236, 234, 236, 225, 220, 231, 214, 193, 222, 209, 183, 186, 164, 137, 159, 127, 115, 90, 110, 75, 60, 50, 35, 25, 4, 0, 0, 0, 0, 0, 0, 0, 0, 0, 0, 0, 0, 0, 0, 0, 0, 0, 0, 0, 0, 0, 0, 0, 0, 0, 0, 0, 0, 0, 0, 0, 0, 0, 0, 0, 0, 0, 0, 0, 0, 0, 0, 0, 0, 0, 0, 0, 0, 0, 0, 0, 0, 0, 0, 0, 0, 0, 0, 0
0, 0, 73, 1, 2, 7, 10, 26, 43, 66, 115, 91, 109, 132, 197, 178, 177, 194, 219, 236, 235, 240, 260, 230, 276, 254, 205, 245, 219, 209, 214, 175, 174, 197, 164, 150, 130, 130, 134, 92, 73, 76, 63, 54, 38, 14, 2, 0, 0, 0, 0, 0, 0, 0, 0, 0, 0, 0, 0, 0, 0, 0, 0, 0, 0, 0, 0, 0, 0, 0, 0, 0, 0, 0, 0, 0, 0, 0, 0, 0, 0, 0, 0, 0, 0, 0, 0, 0, 0, 0, 0, 0, 0, 0, 0, 0, 0, 0, 0, 0, 0, 0, 0, 0, 0, 0
0, 0, 74, 5, 4, 7, 17, 26, 48, 58, 117, 94, 108, 172, 162, 189, 202, 236, 201, 238, 235, 249, 239, 206, 217, 262, 223, 219, 222, 205, 179, 218, 208, 168, 159, 145, 147, 123, 126, 106, 106, 62, 67, 64, 36, 25, 0, 0, 0, 0, 0, 0, 0, 0, 0, 0, 0, 0, 0, 0, 0, 0, 0, 0, 0, 0, 0, 0, 0, 0, 0, 0, 0, 0, 0, 0, 0, 0, 0, 0, 0, 0, 0, 0, 0, 0, 0, 0, 0, 0, 0, 0, 0, 0, 0, 0, 0, 0, 0, 0, 0, 0, 0, 0, 0, 0
0, 0, 75, 2, 3, 7, 21, 21, 35, 55, 122, 99, 108, 130, 178, 213, 193, 179, 233, 235, 261, 244, 253, 272, 266, 247, 223, 221, 198, 230, 222, 204, 190, 167, 169, 154, 127, 100, 138, 99, 89, 81, 75, 46, 39, 20, 1, 0, 0, 0, 0, 0, 0, 0, 0, 0, 0, 0, 0, 0, 0, 0, 0, 0, 0, 0, 0, 0, 0, 0, 0, 0, 0, 0, 0, 0, 0, 0, 0, 0, 0, 0, 0, 0, 0, 0, 0, 0, 0, 0, 0, 0, 0, 0, 0, 0, 0, 0, 0, 0, 0, 0, 0, 0, 0, 0
0, 0, 76, 4, 6, 6, 17, 27, 38, 61, 126, 98, 121, 165, 159, 218, 208, 210, 193, 261, 294, 228, 243, 240, 270, 234, 242, 219, 218, 209, 191, 180, 174, 201, 144, 132, 128, 155, 129, 106, 98, 75, 54, 52, 41, 22, 0, 0, 0, 0, 0, 0, 0, 0, 0, 0, 0, 0, 0, 0, 0, 0, 0, 0, 0, 0, 0, 0, 0, 0, 0, 0, 0, 0, 0, 0, 0, 0, 0, 0, 0, 0, 0, 0, 0, 0, 0, 0, 0, 0, 0, 0, 0, 0, 0, 0, 0, 0, 0, 0, 0, 0, 0, 0, 0, 0
0, 0, 77, 1, 1, 8, 8, 34, 30, 54, 106, 99, 121, 138, 178, 208, 197, 206, 206, 274, 252, 248, 280, 262, 240, 240, 212, 214, 212, 217, 211, 180, 179, 195, 150, 147, 122, 114, 126, 114, 99, 72, 81, 49, 44, 22, 1, 0, 0, 0, 0, 0, 0, 0, 0, 0, 0, 0, 0, 0, 0, 0, 0, 0, 0, 0, 0, 0, 0, 0, 0, 0, 0, 0, 0, 0, 0, 0, 0, 0, 0, 0, 0, 0, 0, 0, 0, 0, 0, 0, 0, 0, 0, 0, 0, 0, 0, 0, 0, 0, 0, 0, 0, 0, 0, 0
