# TOPAS Version: 3.1.p3
# Parameter File: REDLEN_small_phantom_mc_basic_3cm.txt
# Results for scorer PhantomDose
# Scored on surface: CdTeCrystal1/YPlusSurface
# X in 100 bins of 0.03332 cm
# Y in 1 bin  of 0.4 cm
# Z in 100 bins of 0.0375 cm
# SurfaceTrackCount : Sum   
# Binned by incident track energy in 100 bins of 0.00104 MeV from 0.016 MeV to 0.12 MeV
# First bin is underflow, next to last bin is overflow, last bin is for case of no incident track.
0, 0, 0, 0, 0, 0, 0, 0, 0, 0, 0, 3, 0, 1, 2, 2, 1, 3, 2, 1, 5, 2, 3, 3, 4, 6, 5, 4, 4, 1, 2, 0, 0, 1, 0, 2, 2, 1, 0, 1, 0, 0, 1, 0, 0, 1, 0, 0, 0, 0, 0, 0, 0, 0, 0, 0, 0, 0, 0, 0, 0, 0, 0, 0, 0, 0, 0, 0, 0, 0, 0, 0, 0, 0, 0, 0, 0, 0, 0, 0, 0, 0, 0, 0, 0, 0, 0, 0, 0, 0, 0, 0, 0, 0, 0, 0, 0, 0, 0, 0, 0, 0, 0, 0, 0, 0
0, 0, 1, 0, 0, 0, 0, 0, 0, 0, 1, 0, 0, 2, 0, 0, 0, 2, 1, 3, 2, 1, 3, 1, 3, 2, 6, 2, 3, 3, 3, 1, 2, 2, 1, 3, 1, 2, 0, 1, 2, 3, 2, 1, 1, 1, 0, 0, 0, 0, 0, 0, 0, 0, 0, 0, 0, 0, 0, 0, 0, 0, 0, 0, 0, 0, 0, 0, 0, 0, 0, 0, 0, 0, 0, 0, 0, 0, 0, 0, 0, 0, 0, 0, 0, 0, 0, 0, 0, 0, 0, 0, 0, 0, 0, 0, 0, 0, 0, 0, 0, 0, 0, 0, 0, 0
0, 0, 2, 6, 0, 0, 0, 0, 0, 0, 0, 0, 0, 1, 2, 0, 3, 2, 5, 1, 4, 2, 2, 7, 3, 3, 1, 3, 1, 2, 2, 3, 3, 2, 0, 1, 0, 1, 1, 0, 0, 1, 2, 0, 0, 0, 0, 0, 0, 0, 0, 0, 0, 0, 0, 0, 0, 0, 0, 0, 0, 0, 0, 0, 0, 0, 0, 0, 0, 0, 0, 0, 0, 0, 0, 0, 0, 0, 0, 0, 0, 0, 0, 0, 0, 0, 0, 0, 0, 0, 0, 0, 0, 0, 0, 0, 0, 0, 0, 0, 0, 0, 0, 0, 0, 0
0, 0, 3, 3, 0, 0, 0, 0, 0, 0, 1, 0, 1, 0, 1, 2, 2, 1, 0, 4, 2, 4, 1, 2, 1, 1, 2, 1, 1, 0, 4, 3, 3, 1, 3, 4, 0, 1, 1, 1, 1, 2, 0, 0, 0, 0, 0, 0, 0, 0, 0, 0, 0, 0, 0, 0, 0, 0, 0, 0, 0, 0, 0, 0, 0, 0, 0, 0, 0, 0, 0, 0, 0, 0, 0, 0, 0, 0, 0, 0, 0, 0, 0, 0, 0, 0, 0, 0, 0, 0, 0, 0, 0, 0, 0, 0, 0, 0, 0, 0, 0, 0, 0, 0, 0, 0
0, 0, 4, 1, 0, 0, 0, 0, 0, 0, 2, 0, 0, 0, 0, 3, 1, 5, 2, 4, 3, 2, 6, 5, 3, 7, 7, 1, 1, 2, 2, 1, 4, 1, 3, 1, 1, 0, 1, 1, 2, 1, 0, 0, 0, 0, 0, 0, 0, 0, 0, 0, 0, 0, 0, 0, 0, 0, 0, 0, 0, 0, 0, 0, 0, 0, 0, 0, 0, 0, 0, 0, 0, 0, 0, 0, 0, 0, 0, 0, 0, 0, 0, 0, 0, 0, 0, 0, 0, 0, 0, 0, 0, 0, 0, 0, 0, 0, 0, 0, 0, 0, 0, 0, 0, 0
0, 0, 5, 0, 1, 2, 8, 8, 18, 16, 54, 38, 55, 52, 77, 88, 84, 110, 98, 90, 86, 107, 104, 96, 114, 112, 87, 85, 106, 84, 92, 86, 68, 69, 63, 61, 48, 47, 49, 50, 41, 32, 20, 18, 14, 6, 1, 0, 0, 0, 0, 0, 0, 0, 0, 0, 0, 0, 0, 0, 0, 0, 0, 0, 0, 0, 0, 0, 0, 0, 0, 0, 0, 0, 0, 0, 0, 0, 0, 0, 0, 0, 0, 0, 0, 0, 0, 0, 0, 0, 0, 0, 0, 0, 0, 0, 0, 0, 0, 0, 0, 0, 0, 0, 0, 0
0, 0, 6, 1, 5, 7, 21, 30, 35, 62, 123, 78, 97, 161, 164, 216, 191, 244, 224, 246, 201, 246, 256, 296, 251, 239, 220, 211, 207, 195, 188, 203, 178, 176, 169, 141, 145, 146, 102, 102, 100, 75, 72, 56, 44, 13, 3, 0, 0, 0, 0, 0, 0, 0, 0, 0, 0, 0, 0, 0, 0, 0, 0, 0, 0, 0, 0, 0, 0, 0, 0, 0, 0, 0, 0, 0, 0, 0, 0, 0, 0, 0, 0, 0, 0, 0, 0, 0, 0, 0, 0, 0, 0, 0, 0, 0, 0, 0, 0, 0, 0, 0, 0, 0, 0, 0
0, 0, 7, 1, 2, 10, 13, 29, 39, 68, 103, 75, 111, 135, 156, 233, 196, 205, 219, 237, 252, 268, 285, 261, 239, 238, 257, 231, 201, 195, 186, 175, 162, 174, 175, 175, 133, 121, 107, 100, 88, 82, 64, 48, 48, 27, 4, 0, 0, 0, 0, 0, 0, 0, 0, 0, 0, 0, 0, 0, 0, 0, 0, 0, 0, 0, 0, 0, 0, 0, 0, 0, 0, 0, 0, 0, 0, 0, 0, 0, 0, 0, 0, 0, 0, 0, 0, 0, 0, 0, 0, 0, 0, 0, 0, 0, 0, 0, 0, 0, 0, 0, 0, 0, 0, 0
0, 0, 8, 2, 1, 13, 13, 25, 42, 66, 121, 94, 124, 160, 174, 197, 178, 212, 218, 255, 242, 248, 281, 269, 242, 248, 225, 217, 214, 221, 195, 185, 204, 178, 132, 134, 109, 135, 113, 89, 84, 88, 58, 51, 36, 18, 5, 0, 0, 0, 0, 0, 0, 0, 0, 0, 0, 0, 0, 0, 0, 0, 0, 0, 0, 0, 0, 0, 0, 0, 0, 0, 0, 0, 0, 0, 0, 0, 0, 0, 0, 0, 0, 0, 0, 0, 0, 0, 0, 0, 0, 0, 0, 0, 0, 0, 0, 0, 0, 0, 0, 0, 0, 0, 0, 0
0, 0, 9, 2, 4, 5, 22, 24, 47, 66, 119, 105, 93, 146, 173, 208, 214, 174, 215, 236, 233, 255, 230, 235, 232, 244, 254, 235, 226, 216, 199, 170, 178, 167, 167, 153, 146, 161, 122, 112, 88, 73, 66, 61, 32, 20, 0, 0, 0, 0, 0, 0, 0, 0, 0, 0, 0, 0, 0, 0, 0, 0, 0, 0, 0, 0, 0, 0, 0, 0, 0, 0, 0, 0, 0, 0, 0, 0, 0, 0, 0, 0, 0, 0, 0, 0, 0, 0, 0, 0, 0, 0, 0, 0, 0, 0, 0, 0, 0, 0, 0, 0, 0, 0, 0, 0
0, 0, 10, 4, 3, 10, 12, 27, 34, 62, 109, 99, 101, 141, 184, 212, 213, 227, 203, 236, 232, 276, 258, 249, 257, 238, 208, 243, 226, 189, 193, 142, 167, 168, 182, 159, 117, 139, 114, 88, 75, 66, 59, 62, 40, 19, 2, 0, 0, 0, 0, 0, 0, 0, 0, 0, 0, 0, 0, 0, 0, 0, 0, 0, 0, 0, 0, 0, 0, 0, 0, 0, 0, 0, 0, 0, 0, 0, 0, 0, 0, 0, 0, 0, 0, 0, 0, 0, 0, 0, 0, 0, 0, 0, 0, 0, 0, 0, 0, 0, 0, 0, 0, 0, 0, 0
0, 0, 11, 3, 11, 10, 18, 22, 33, 59, 107, 117, 105, 140, 163, 212, 183, 208, 216, 257, 250, 252, 269, 238, 238, 265, 237, 198, 213, 187, 197, 204, 185, 160, 159, 144, 142, 134, 99, 117, 87, 72, 78, 48, 36, 31, 1, 0, 0, 0, 0, 0, 0, 0, 0, 0, 0, 0, 0, 0, 0, 0, 0, 0, 0, 0, 0, 0, 0, 0, 0, 0, 0, 0, 0, 0, 0, 0, 0, 0, 0, 0, 0, 0, 0, 0, 0, 0, 0, 0, 0, 0, 0, 0, 0, 0, 0, 0, 0, 0, 0, 0, 0, 0, 0, 0
0, 0, 12, 3, 7, 8, 15, 28, 34, 49, 124, 112, 113, 146, 201, 202, 186, 213, 213, 250, 234, 207, 244, 225, 254, 206, 223, 228, 226, 203, 191, 200, 196, 149, 152, 132, 137, 112, 120, 106, 61, 67, 61, 68, 35, 26, 0, 0, 0, 0, 0, 0, 0, 0, 0, 0, 0, 0, 0, 0, 0, 0, 0, 0, 0, 0, 0, 0, 0, 0, 0, 0, 0, 0, 0, 0, 0, 0, 0, 0, 0, 0, 0, 0, 0, 0, 0, 0, 0, 0, 0, 0, 0, 0, 0, 0, 0, 0, 0, 0, 0, 0, 0, 0, 0, 0
0, 0, 13, 1, 1, 7, 23, 23, 37, 57, 100, 82, 110, 168, 147, 188, 203, 252, 204, 261, 226, 276, 259, 279, 247, 258, 225, 232, 199, 217, 174, 176, 197, 168, 159, 157, 137, 120, 107, 107, 88, 68, 71, 58, 41, 19, 2, 0, 0, 0, 0, 0, 0, 0, 0, 0, 0, 0, 0, 0, 0, 0, 0, 0, 0, 0, 0, 0, 0, 0, 0, 0, 0, 0, 0, 0, 0, 0, 0, 0, 0, 0, 0, 0, 0, 0, 0, 0, 0, 0, 0, 0, 0, 0, 0, 0, 0, 0, 0, 0, 0, 0, 0, 0, 0, 0
0, 0, 14, 2, 6, 4, 14, 29, 31, 71, 106, 99, 120, 186, 168, 189, 200, 218, 216, 230, 260, 260, 263, 233, 243, 238, 220, 235, 231, 202, 223, 176, 167, 164, 149, 149, 142, 122, 119, 76, 78, 73, 68, 55, 39, 15, 1, 0, 0, 0, 0, 0, 0, 0, 0, 0, 0, 0, 0, 0, 0, 0, 0, 0, 0, 0, 0, 0, 0, 0, 0, 0, 0, 0, 0, 0, 0, 0, 0, 0, 0, 0, 0, 0, 0, 0, 0, 0, 0, 0, 0, 0, 0, 0, 0, 0, 0, 0, 0, 0, 0, 0, 0, 0, 0, 0
0, 0, 15, 6, 2, 12, 14, 28, 39, 56, 122, 88, 100, 131, 162, 176, 212, 215, 225, 252, 260, 246, 274, 234, 266, 248, 209, 229, 227, 194, 220, 201, 150, 165, 170, 152, 127, 139, 115, 138, 84, 60, 70, 54, 36, 21, 1, 0, 0, 0, 0, 0, 0, 0, 0, 0, 0, 0, 0, 0, 0, 0, 0, 0, 0, 0, 0, 0, 0, 0, 0, 0, 0, 0, 0, 0, 0, 0, 0, 0, 0, 0, 0, 0, 0, 0, 0, 0, 0, 0, 0, 0, 0, 0, 0, 0, 0, 0, 0, 0, 0, 0, 0, 0, 0, 0
0, 0, 16, 2, 3, 9, 22, 22, 54, 55, 92, 97, 109, 152, 167, 199, 191, 215, 204, 239, 257, 249, 235, 232, 253, 242, 213, 229, 235, 205, 189, 171, 173, 153, 151, 166, 162, 144, 123, 111, 93, 74, 75, 59, 34, 15, 0, 0, 0, 0, 0, 0, 0, 0, 0, 0, 0, 0, 0, 0, 0, 0, 0, 0, 0, 0, 0, 0, 0, 0, 0, 0, 0, 0, 0, 0, 0, 0, 0, 0, 0, 0, 0, 0, 0, 0, 0, 0, 0, 0, 0, 0, 0, 0, 0, 0, 0, 0, 0, 0, 0, 0, 0, 0, 0, 0
0, 0, 17, 5, 7, 13, 12, 22, 35, 77, 116, 114, 102, 126, 189, 189, 215, 218, 216, 240, 241, 224, 270, 288, 239, 233, 252, 225, 215, 237, 212, 190, 173, 168, 151, 147, 134, 141, 111, 116, 81, 70, 65, 48, 56, 34, 0, 0, 0, 0, 0, 0, 0, 0, 0, 0, 0, 0, 0, 0, 0, 0, 0, 0, 0, 0, 0, 0, 0, 0, 0, 0, 0, 0, 0, 0, 0, 0, 0, 0, 0, 0, 0, 0, 0, 0, 0, 0, 0, 0, 0, 0, 0, 0, 0, 0, 0, 0, 0, 0, 0, 0, 0, 0, 0, 0
0, 0, 18, 6, 5, 11, 15, 33, 39, 48, 125, 90, 126, 149, 199, 213, 207, 209, 223, 231, 289, 242, 264, 220, 234, 225, 236, 242, 216, 212, 228, 181, 172, 174, 184, 161, 126, 127, 104, 99, 86, 86, 58, 54, 41, 30, 0, 0, 0, 0, 0, 0, 0, 0, 0, 0, 0, 0, 0, 0, 0, 0, 0, 0, 0, 0, 0, 0, 0, 0, 0, 0, 0, 0, 0, 0, 0, 0, 0, 0, 0, 0, 0, 0, 0, 0, 0, 0, 0, 0, 0, 0, 0, 0, 0, 0, 0, 0, 0, 0, 0, 0, 0, 0, 0, 0
0, 0, 19, 2, 1, 8, 17, 29, 38, 70, 117, 105, 122, 136, 179, 194, 233, 208, 238, 254, 249, 254, 270, 253, 241, 220, 268, 216, 239, 240, 194, 186, 152, 163, 147, 172, 131, 154, 129, 113, 78, 81, 61, 50, 28, 22, 2, 0, 0, 0, 0, 0, 0, 0, 0, 0, 0, 0, 0, 0, 0, 0, 0, 0, 0, 0, 0, 0, 0, 0, 0, 0, 0, 0, 0, 0, 0, 0, 0, 0, 0, 0, 0, 0, 0, 0, 0, 0, 0, 0, 0, 0, 0, 0, 0, 0, 0, 0, 0, 0, 0, 0, 0, 0, 0, 0
0, 0, 20, 2, 6, 7, 13, 27, 34, 51, 117, 96, 128, 152, 159, 195, 183, 232, 233, 251, 265, 246, 231, 256, 258, 255, 237, 245, 213, 196, 191, 224, 182, 184, 162, 154, 109, 119, 90, 98, 82, 92, 66, 55, 38, 17, 2, 0, 0, 0, 0, 0, 0, 0, 0, 0, 0, 0, 0, 0, 0, 0, 0, 0, 0, 0, 0, 0, 0, 0, 0, 0, 0, 0, 0, 0, 0, 0, 0, 0, 0, 0, 0, 0, 0, 0, 0, 0, 0, 0, 0, 0, 0, 0, 0, 0, 0, 0, 0, 0, 0, 0, 0, 0, 0, 0
0, 0, 21, 4, 5, 7, 8, 28, 39, 60, 128, 104, 132, 143, 163, 183, 222, 215, 241, 241, 241, 265, 253, 251, 237, 238, 235, 227, 205, 191, 180, 208, 166, 162, 176, 176, 146, 118, 121, 114, 111, 84, 51, 65, 45, 21, 1, 0, 0, 0, 0, 0, 0, 0, 0, 0, 0, 0, 0, 0, 0, 0, 0, 0, 0, 0, 0, 0, 0, 0, 0, 0, 0, 0, 0, 0, 0, 0, 0, 0, 0, 0, 0, 0, 0, 0, 0, 0, 0, 0, 0, 0, 0, 0, 0, 0, 0, 0, 0, 0, 0, 0, 0, 0, 0, 0
0, 0, 22, 0, 6, 6, 21, 30, 41, 53, 125, 98, 103, 153, 164, 190, 187, 219, 205, 212, 259, 268, 280, 271, 213, 233, 193, 230, 208, 215, 208, 173, 181, 185, 160, 143, 142, 138, 128, 93, 86, 63, 75, 60, 38, 15, 1, 0, 0, 0, 0, 0, 0, 0, 0, 0, 0, 0, 0, 0, 0, 0, 0, 0, 0, 0, 0, 0, 0, 0, 0, 0, 0, 0, 0, 0, 0, 0, 0, 0, 0, 0, 0, 0, 0, 0, 0, 0, 0, 0, 0, 0, 0, 0, 0, 0, 0, 0, 0, 0, 0, 0, 0, 0, 0, 0
0, 0, 23, 1, 4, 4, 14, 37, 40, 47, 114, 91, 107, 139, 174, 207, 175, 216, 205, 246, 262, 247, 232, 263, 217, 212, 206, 236, 245, 201, 198, 204, 197, 142, 165, 133, 138, 116, 87, 92, 95, 82, 67, 47, 38, 22, 2, 0, 0, 0, 0, 0, 0, 0, 0, 0, 0, 0, 0, 0, 0, 0, 0, 0, 0, 0, 0, 0, 0, 0, 0, 0, 0, 0, 0, 0, 0, 0, 0, 0, 0, 0, 0, 0, 0, 0, 0, 0, 0, 0, 0, 0, 0, 0, 0, 0, 0, 0, 0, 0, 0, 0, 0, 0, 0, 0
0, 0, 24, 1, 4, 12, 15, 31, 31, 72, 121, 75, 127, 155, 170, 230, 205, 173, 242, 257, 302, 264, 258, 207, 254, 242, 252, 217, 249, 209, 205, 210, 204, 174, 140, 133, 151, 139, 117, 106, 98, 74, 63, 48, 47, 29, 1, 0, 0, 0, 0, 0, 0, 0, 0, 0, 0, 0, 0, 0, 0, 0, 0, 0, 0, 0, 0, 0, 0, 0, 0, 0, 0, 0, 0, 0, 0, 0, 0, 0, 0, 0, 0, 0, 0, 0, 0, 0, 0, 0, 0, 0, 0, 0, 0, 0, 0, 0, 0, 0, 0, 0, 0, 0, 0, 0
0, 0, 25, 0, 5, 9, 16, 28, 36, 53, 98, 93, 134, 162, 171, 189, 173, 235, 201, 274, 266, 234, 265, 259, 241, 254, 221, 241, 234, 198, 234, 201, 175, 177, 175, 151, 122, 133, 111, 73, 89, 84, 68, 59, 46, 21, 1, 0, 0, 0, 0, 0, 0, 0, 0, 0, 0, 0, 0, 0, 0, 0, 0, 0, 0, 0, 0, 0, 0, 0, 0, 0, 0, 0, 0, 0, 0, 0, 0, 0, 0, 0, 0, 0, 0, 0, 0, 0, 0, 0, 0, 0, 0, 0, 0, 0, 0, 0, 0, 0, 0, 0, 0, 0, 0, 0
0, 0, 26, 0, 7, 4, 14, 28, 43, 57, 115, 90, 123, 142, 191, 189, 210, 213, 241, 256, 223, 260, 216, 229, 246, 246, 236, 233, 222, 226, 180, 201, 163, 159, 139, 143, 139, 123, 103, 120, 91, 91, 71, 47, 43, 20, 2, 0, 0, 0, 0, 0, 0, 0, 0, 0, 0, 0, 0, 0, 0, 0, 0, 0, 0, 0, 0, 0, 0, 0, 0, 0, 0, 0, 0, 0, 0, 0, 0, 0, 0, 0, 0, 0, 0, 0, 0, 0, 0, 0, 0, 0, 0, 0, 0, 0, 0, 0, 0, 0, 0, 0, 0, 0, 0, 0
0, 0, 27, 0, 4, 6, 14, 28, 33, 62, 126, 92, 100, 132, 174, 202, 185, 229, 255, 248, 224, 262, 250, 273, 253, 214, 233, 239, 227, 202, 187, 193, 176, 170, 149, 143, 146, 121, 113, 95, 94, 66, 80, 57, 40, 20, 1, 0, 0, 0, 0, 0, 0, 0, 0, 0, 0, 0, 0, 0, 0, 0, 0, 0, 0, 0, 0, 0, 0, 0, 0, 0, 0, 0, 0, 0, 0, 0, 0, 0, 0, 0, 0, 0, 0, 0, 0, 0, 0, 0, 0, 0, 0, 0, 0, 0, 0, 0, 0, 0, 0, 0, 0, 0, 0, 0
0, 0, 28, 3, 2, 10, 18, 20, 43, 47, 107, 93, 100, 158, 168, 200, 168, 235, 210, 209, 238, 245, 281, 238, 254, 255, 259, 208, 235, 205, 200, 196, 170, 147, 139, 145, 145, 118, 115, 100, 103, 83, 60, 53, 34, 20, 1, 0, 0, 0, 0, 0, 0, 0, 0, 0, 0, 0, 0, 0, 0, 0, 0, 0, 0, 0, 0, 0, 0, 0, 0, 0, 0, 0, 0, 0, 0, 0, 0, 0, 0, 0, 0, 0, 0, 0, 0, 0, 0, 0, 0, 0, 0, 0, 0, 0, 0, 0, 0, 0, 0, 0, 0, 0, 0, 0
0, 0, 29, 6, 7, 8, 12, 19, 33, 48, 98, 99, 125, 122, 178, 168, 201, 187, 204, 231, 242, 260, 229, 259, 250, 245, 231, 244, 210, 209, 209, 183, 190, 164, 137, 151, 107, 111, 127, 101, 113, 74, 79, 61, 38, 21, 0, 0, 0, 0, 0, 0, 0, 0, 0, 0, 0, 0, 0, 0, 0, 0, 0, 0, 0, 0, 0, 0, 0, 0, 0, 0, 0, 0, 0, 0, 0, 0, 0, 0, 0, 0, 0, 0, 0, 0, 0, 0, 0, 0, 0, 0, 0, 0, 0, 0, 0, 0, 0, 0, 0, 0, 0, 0, 0, 0
0, 0, 30, 0, 5, 6, 12, 26, 50, 62, 134, 82, 106, 143, 175, 216, 243, 214, 200, 240, 259, 259, 247, 249, 241, 234, 239, 245, 212, 217, 211, 178, 176, 155, 159, 133, 157, 135, 124, 98, 76, 86, 77, 56, 43, 25, 1, 0, 0, 0, 0, 0, 0, 0, 0, 0, 0, 0, 0, 0, 0, 0, 0, 0, 0, 0, 0, 0, 0, 0, 0, 0, 0, 0, 0, 0, 0, 0, 0, 0, 0, 0, 0, 0, 0, 0, 0, 0, 0, 0, 0, 0, 0, 0, 0, 0, 0, 0, 0, 0, 0, 0, 0, 0, 0, 0
0, 0, 31, 4, 10, 5, 15, 21, 38, 58, 130, 88, 103, 155, 188, 202, 187, 195, 224, 228, 260, 269, 260, 256, 230, 263, 202, 238, 226, 219, 236, 183, 168, 157, 173, 127, 162, 116, 93, 101, 101, 72, 58, 63, 36, 13, 4, 0, 0, 0, 0, 0, 0, 0, 0, 0, 0, 0, 0, 0, 0, 0, 0, 0, 0, 0, 0, 0, 0, 0, 0, 0, 0, 0, 0, 0, 0, 0, 0, 0, 0, 0, 0, 0, 0, 0, 0, 0, 0, 0, 0, 0, 0, 0, 0, 0, 0, 0, 0, 0, 0, 0, 0, 0, 0, 0
0, 0, 32, 6, 5, 9, 16, 18, 22, 54, 126, 95, 119, 137, 174, 180, 178, 224, 224, 264, 242, 243, 236, 247, 245, 227, 236, 215, 205, 203, 199, 196, 153, 202, 179, 146, 114, 126, 134, 106, 69, 72, 65, 45, 53, 28, 1, 0, 0, 0, 0, 0, 0, 0, 0, 0, 0, 0, 0, 0, 0, 0, 0, 0, 0, 0, 0, 0, 0, 0, 0, 0, 0, 0, 0, 0, 0, 0, 0, 0, 0, 0, 0, 0, 0, 0, 0, 0, 0, 0, 0, 0, 0, 0, 0, 0, 0, 0, 0, 0, 0, 0, 0, 0, 0, 0
0, 0, 33, 0, 3, 4, 10, 34, 43, 54, 108, 94, 133, 155, 178, 200, 198, 236, 226, 250, 262, 244, 268, 285, 255, 228, 245, 256, 212, 212, 244, 168, 175, 193, 151, 161, 147, 118, 97, 115, 97, 60, 65, 53, 45, 14, 1, 0, 0, 0, 0, 0, 0, 0, 0, 0, 0, 0, 0, 0, 0, 0, 0, 0, 0, 0, 0, 0, 0, 0, 0, 0, 0, 0, 0, 0, 0, 0, 0, 0, 0, 0, 0, 0, 0, 0, 0, 0, 0, 0, 0, 0, 0, 0, 0, 0, 0, 0, 0, 0, 0, 0, 0, 0, 0, 0
0, 0, 34, 2, 3, 9, 15, 31, 38, 58, 114, 112, 104, 132, 157, 219, 240, 221, 237, 245, 261, 272, 272, 263, 222, 235, 249, 198, 192, 194, 208, 167, 157, 172, 173, 168, 128, 129, 101, 92, 95, 74, 74, 60, 45, 23, 1, 0, 0, 0, 0, 0, 0, 0, 0, 0, 0, 0, 0, 0, 0, 0, 0, 0, 0, 0, 0, 0, 0, 0, 0, 0, 0, 0, 0, 0, 0, 0, 0, 0, 0, 0, 0, 0, 0, 0, 0, 0, 0, 0, 0, 0, 0, 0, 0, 0, 0, 0, 0, 0, 0, 0, 0, 0, 0, 0
0, 0, 35, 0, 4, 3, 12, 25, 31, 41, 127, 90, 122, 150, 163, 213, 180, 220, 222, 230, 284, 287, 249, 239, 259, 232, 229, 247, 216, 217, 227, 188, 216, 169, 153, 130, 153, 132, 116, 101, 92, 86, 68, 47, 34, 15, 2, 0, 0, 0, 0, 0, 0, 0, 0, 0, 0, 0, 0, 0, 0, 0, 0, 0, 0, 0, 0, 0, 0, 0, 0, 0, 0, 0, 0, 0, 0, 0, 0, 0, 0, 0, 0, 0, 0, 0, 0, 0, 0, 0, 0, 0, 0, 0, 0, 0, 0, 0, 0, 0, 0, 0, 0, 0, 0, 0
0, 0, 36, 2, 5, 7, 14, 20, 38, 62, 114, 87, 111, 123, 152, 203, 180, 231, 241, 258, 235, 264, 233, 256, 254, 240, 249, 241, 203, 207, 220, 205, 194, 167, 184, 126, 143, 137, 105, 120, 76, 72, 68, 47, 47, 35, 0, 0, 0, 0, 0, 0, 0, 0, 0, 0, 0, 0, 0, 0, 0, 0, 0, 0, 0, 0, 0, 0, 0, 0, 0, 0, 0, 0, 0, 0, 0, 0, 0, 0, 0, 0, 0, 0, 0, 0, 0, 0, 0, 0, 0, 0, 0, 0, 0, 0, 0, 0, 0, 0, 0, 0, 0, 0, 0, 0
0, 0, 37, 0, 2, 10, 21, 23, 41, 58, 106, 83, 121, 164, 146, 175, 202, 197, 208, 250, 203, 229, 258, 229, 247, 228, 242, 187, 210, 220, 216, 205, 166, 164, 146, 146, 158, 113, 101, 100, 103, 80, 70, 55, 33, 25, 0, 0, 0, 0, 0, 0, 0, 0, 0, 0, 0, 0, 0, 0, 0, 0, 0, 0, 0, 0, 0, 0, 0, 0, 0, 0, 0, 0, 0, 0, 0, 0, 0, 0, 0, 0, 0, 0, 0, 0, 0, 0, 0, 0, 0, 0, 0, 0, 0, 0, 0, 0, 0, 0, 0, 0, 0, 0, 0, 0
0, 0, 38, 0, 5, 7, 16, 29, 40, 52, 111, 91, 110, 133, 200, 199, 218, 194, 238, 219, 241, 252, 260, 237, 223, 241, 213, 198, 247, 204, 200, 188, 170, 174, 157, 133, 141, 121, 141, 107, 93, 65, 69, 71, 42, 22, 1, 0, 0, 0, 0, 0, 0, 0, 0, 0, 0, 0, 0, 0, 0, 0, 0, 0, 0, 0, 0, 0, 0, 0, 0, 0, 0, 0, 0, 0, 0, 0, 0, 0, 0, 0, 0, 0, 0, 0, 0, 0, 0, 0, 0, 0, 0, 0, 0, 0, 0, 0, 0, 0, 0, 0, 0, 0, 0, 0
0, 0, 39, 2, 2, 9, 15, 22, 39, 49, 103, 86, 122, 144, 174, 198, 196, 198, 195, 260, 254, 262, 248, 221, 241, 218, 221, 248, 207, 185, 226, 185, 185, 139, 150, 145, 153, 126, 120, 91, 105, 83, 87, 60, 31, 20, 0, 0, 0, 0, 0, 0, 0, 0, 0, 0, 0, 0, 0, 0, 0, 0, 0, 0, 0, 0, 0, 0, 0, 0, 0, 0, 0, 0, 0, 0, 0, 0, 0, 0, 0, 0, 0, 0, 0, 0, 0, 0, 0, 0, 0, 0, 0, 0, 0, 0, 0, 0, 0, 0, 0, 0, 0, 0, 0, 0
0, 0, 40, 0, 7, 9, 11, 20, 38, 64, 117, 91, 131, 159, 156, 213, 210, 204, 215, 244, 268, 233, 243, 214, 228, 269, 218, 217, 225, 209, 194, 155, 202, 159, 163, 142, 131, 132, 108, 93, 94, 78, 73, 51, 45, 22, 1, 0, 0, 0, 0, 0, 0, 0, 0, 0, 0, 0, 0, 0, 0, 0, 0, 0, 0, 0, 0, 0, 0, 0, 0, 0, 0, 0, 0, 0, 0, 0, 0, 0, 0, 0, 0, 0, 0, 0, 0, 0, 0, 0, 0, 0, 0, 0, 0, 0, 0, 0, 0, 0, 0, 0, 0, 0, 0, 0
0, 0, 41, 0, 4, 7, 12, 23, 40, 58, 97, 96, 94, 128, 172, 187, 175, 196, 230, 228, 221, 212, 225, 230, 217, 223, 224, 201, 211, 208, 216, 173, 158, 163, 140, 123, 139, 111, 118, 86, 99, 70, 68, 49, 37, 9, 2, 0, 0, 0, 0, 0, 0, 0, 0, 0, 0, 0, 0, 0, 0, 0, 0, 0, 0, 0, 0, 0, 0, 0, 0, 0, 0, 0, 0, 0, 0, 0, 0, 0, 0, 0, 0, 0, 0, 0, 0, 0, 0, 0, 0, 0, 0, 0, 0, 0, 0, 0, 0, 0, 0, 0, 0, 0, 0, 0
0, 0, 42, 2, 3, 6, 13, 16, 31, 42, 85, 70, 98, 113, 143, 151, 166, 185, 160, 167, 172, 171, 204, 181, 189, 202, 182, 184, 166, 165, 166, 162, 135, 121, 135, 124, 135, 112, 87, 70, 70, 64, 45, 40, 39, 19, 6, 0, 0, 0, 0, 0, 0, 0, 0, 0, 0, 0, 0, 0, 0, 0, 0, 0, 0, 0, 0, 0, 0, 0, 0, 0, 0, 0, 0, 0, 0, 0, 0, 0, 0, 0, 0, 0, 0, 0, 0, 0, 0, 0, 0, 0, 0, 0, 0, 0, 0, 0, 0, 0, 0, 0, 0, 0, 0, 0
0, 0, 43, 3, 2, 4, 5, 11, 22, 31, 71, 43, 57, 75, 111, 132, 104, 129, 149, 145, 156, 135, 164, 156, 150, 178, 145, 132, 128, 152, 118, 129, 124, 101, 118, 104, 61, 93, 63, 77, 63, 40, 55, 46, 22, 15, 0, 0, 0, 0, 0, 0, 0, 0, 0, 0, 0, 0, 0, 0, 0, 0, 0, 0, 0, 0, 0, 0, 0, 0, 0, 0, 0, 0, 0, 0, 0, 0, 0, 0, 0, 0, 0, 0, 0, 0, 0, 0, 0, 0, 0, 0, 0, 0, 0, 0, 0, 0, 0, 0, 0, 0, 0, 0, 0, 0
0, 0, 44, 1, 0, 1, 4, 6, 16, 25, 54, 40, 40, 56, 70, 73, 86, 95, 103, 95, 117, 111, 133, 122, 133, 134, 111, 122, 111, 94, 100, 108, 89, 98, 85, 82, 82, 63, 65, 61, 43, 36, 39, 22, 29, 13, 0, 0, 0, 0, 0, 0, 0, 0, 0, 0, 0, 0, 0, 0, 0, 0, 0, 0, 0, 0, 0, 0, 0, 0, 0, 0, 0, 0, 0, 0, 0, 0, 0, 0, 0, 0, 0, 0, 0, 0, 0, 0, 0, 0, 0, 0, 0, 0, 0, 0, 0, 0, 0, 0, 0, 0, 0, 0, 0, 0
0, 0, 45, 0, 1, 2, 8, 4, 13, 12, 41, 26, 32, 44, 50, 67, 64, 67, 85, 71, 104, 100, 92, 99, 91, 107, 98, 106, 105, 96, 86, 74, 83, 79, 68, 82, 56, 48, 57, 28, 46, 43, 22, 21, 23, 6, 2, 0, 0, 0, 0, 0, 0, 0, 0, 0, 0, 0, 0, 0, 0, 0, 0, 0, 0, 0, 0, 0, 0, 0, 0, 0, 0, 0, 0, 0, 0, 0, 0, 0, 0, 0, 0, 0, 0, 0, 0, 0, 0, 0, 0, 0, 0, 0, 0, 0, 0, 0, 0, 0, 0, 0, 0, 0, 0, 0
0, 0, 46, 0, 2, 0, 0, 5, 8, 15, 21, 23, 25, 29, 35, 53, 44, 65, 51, 68, 70, 80, 87, 88, 91, 69, 77, 66, 82, 68, 64, 70, 58, 55, 60, 67, 53, 61, 53, 43, 35, 31, 31, 18, 18, 6, 0, 0, 0, 0, 0, 0, 0, 0, 0, 0, 0, 0, 0, 0, 0, 0, 0, 0, 0, 0, 0, 0, 0, 0, 0, 0, 0, 0, 0, 0, 0, 0, 0, 0, 0, 0, 0, 0, 0, 0, 0, 0, 0, 0, 0, 0, 0, 0, 0, 0, 0, 0, 0, 0, 0, 0, 0, 0, 0, 0
0, 0, 47, 1, 0, 1, 3, 6, 1, 5, 23, 13, 12, 24, 20, 22, 31, 44, 48, 58, 64, 56, 70, 59, 64, 63, 52, 57, 68, 75, 71, 57, 80, 71, 40, 41, 52, 48, 30, 40, 32, 43, 27, 22, 17, 4, 0, 0, 0, 0, 0, 0, 0, 0, 0, 0, 0, 0, 0, 0, 0, 0, 0, 0, 0, 0, 0, 0, 0, 0, 0, 0, 0, 0, 0, 0, 0, 0, 0, 0, 0, 0, 0, 0, 0, 0, 0, 0, 0, 0, 0, 0, 0, 0, 0, 0, 0, 0, 0, 0, 0, 0, 0, 0, 0, 0
0, 0, 48, 1, 0, 0, 3, 0, 2, 6, 12, 6, 8, 19, 15, 31, 30, 36, 31, 63, 56, 36, 46, 54, 46, 61, 52, 66, 56, 64, 51, 37, 39, 37, 60, 37, 36, 40, 31, 28, 21, 17, 19, 17, 7, 5, 2, 0, 0, 0, 0, 0, 0, 0, 0, 0, 0, 0, 0, 0, 0, 0, 0, 0, 0, 0, 0, 0, 0, 0, 0, 0, 0, 0, 0, 0, 0, 0, 0, 0, 0, 0, 0, 0, 0, 0, 0, 0, 0, 0, 0, 0, 0, 0, 0, 0, 0, 0, 0, 0, 0, 0, 0, 0, 0, 0
0, 0, 49, 4, 0, 1, 0, 0, 2, 0, 14, 2, 11, 14, 11, 22, 18, 25, 31, 24, 43, 44, 44, 41, 54, 42, 49, 51, 50, 33, 51, 45, 41, 58, 44, 41, 39, 37, 21, 30, 30, 27, 20, 14, 18, 4, 1, 0, 0, 0, 0, 0, 0, 0, 0, 0, 0, 0, 0, 0, 0, 0, 0, 0, 0, 0, 0, 0, 0, 0, 0, 0, 0, 0, 0, 0, 0, 0, 0, 0, 0, 0, 0, 0, 0, 0, 0, 0, 0, 0, 0, 0, 0, 0, 0, 0, 0, 0, 0, 0, 0, 0, 0, 0, 0, 0
0, 0, 50, 0, 0, 0, 0, 0, 2, 2, 7, 1, 8, 11, 19, 13, 20, 23, 34, 28, 27, 45, 47, 55, 34, 54, 52, 52, 58, 56, 55, 47, 32, 31, 36, 44, 47, 25, 32, 27, 24, 21, 9, 11, 8, 6, 1, 0, 0, 0, 0, 0, 0, 0, 0, 0, 0, 0, 0, 0, 0, 0, 0, 0, 0, 0, 0, 0, 0, 0, 0, 0, 0, 0, 0, 0, 0, 0, 0, 0, 0, 0, 0, 0, 0, 0, 0, 0, 0, 0, 0, 0, 0, 0, 0, 0, 0, 0, 0, 0, 0, 0, 0, 0, 0, 0
0, 0, 51, 0, 0, 0, 2, 1, 2, 5, 19, 4, 11, 21, 17, 30, 27, 29, 36, 36, 29, 46, 40, 52, 49, 57, 48, 60, 56, 43, 41, 55, 59, 62, 40, 38, 42, 41, 28, 29, 35, 26, 20, 15, 9, 5, 1, 0, 0, 0, 0, 0, 0, 0, 0, 0, 0, 0, 0, 0, 0, 0, 0, 0, 0, 0, 0, 0, 0, 0, 0, 0, 0, 0, 0, 0, 0, 0, 0, 0, 0, 0, 0, 0, 0, 0, 0, 0, 0, 0, 0, 0, 0, 0, 0, 0, 0, 0, 0, 0, 0, 0, 0, 0, 0, 0
0, 0, 52, 1, 1, 0, 0, 2, 4, 8, 17, 10, 13, 16, 24, 37, 28, 37, 36, 57, 51, 50, 62, 64, 81, 65, 61, 64, 67, 65, 52, 40, 64, 62, 56, 48, 39, 45, 39, 29, 39, 39, 17, 23, 16, 8, 0, 0, 0, 0, 0, 0, 0, 0, 0, 0, 0, 0, 0, 0, 0, 0, 0, 0, 0, 0, 0, 0, 0, 0, 0, 0, 0, 0, 0, 0, 0, 0, 0, 0, 0, 0, 0, 0, 0, 0, 0, 0, 0, 0, 0, 0, 0, 0, 0, 0, 0, 0, 0, 0, 0, 0, 0, 0, 0, 0
0, 0, 53, 3, 0, 0, 3, 3, 7, 13, 16, 14, 25, 29, 36, 37, 41, 43, 68, 54, 81, 78, 101, 82, 73, 80, 75, 82, 82, 78, 80, 65, 57, 46, 67, 55, 56, 52, 49, 47, 44, 37, 33, 19, 15, 9, 0, 0, 0, 0, 0, 0, 0, 0, 0, 0, 0, 0, 0, 0, 0, 0, 0, 0, 0, 0, 0, 0, 0, 0, 0, 0, 0, 0, 0, 0, 0, 0, 0, 0, 0, 0, 0, 0, 0, 0, 0, 0, 0, 0, 0, 0, 0, 0, 0, 0, 0, 0, 0, 0, 0, 0, 0, 0, 0, 0
0, 0, 54, 1, 0, 1, 3, 8, 9, 19, 45, 35, 35, 42, 47, 67, 72, 69, 73, 96, 110, 92, 105, 104, 109, 104, 96, 99, 97, 108, 87, 84, 92, 81, 63, 66, 54, 58, 50, 37, 37, 38, 43, 26, 19, 13, 1, 0, 0, 0, 0, 0, 0, 0, 0, 0, 0, 0, 0, 0, 0, 0, 0, 0, 0, 0, 0, 0, 0, 0, 0, 0, 0, 0, 0, 0, 0, 0, 0, 0, 0, 0, 0, 0, 0, 0, 0, 0, 0, 0, 0, 0, 0, 0, 0, 0, 0, 0, 0, 0, 0, 0, 0, 0, 0, 0
0, 0, 55, 2, 0, 2, 5, 15, 10, 16, 47, 39, 46, 69, 72, 86, 79, 86, 102, 108, 121, 101, 108, 107, 122, 121, 122, 111, 114, 122, 118, 94, 89, 98, 64, 71, 74, 73, 69, 55, 41, 48, 31, 28, 26, 9, 2, 0, 0, 0, 0, 0, 0, 0, 0, 0, 0, 0, 0, 0, 0, 0, 0, 0, 0, 0, 0, 0, 0, 0, 0, 0, 0, 0, 0, 0, 0, 0, 0, 0, 0, 0, 0, 0, 0, 0, 0, 0, 0, 0, 0, 0, 0, 0, 0, 0, 0, 0, 0, 0, 0, 0, 0, 0, 0, 0
0, 0, 56, 1, 1, 5, 9, 13, 17, 25, 59, 46, 59, 91, 86, 111, 117, 124, 146, 149, 171, 152, 164, 146, 158, 142, 138, 174, 145, 139, 150, 120, 130, 124, 128, 100, 92, 93, 78, 63, 49, 53, 45, 37, 31, 9, 1, 0, 0, 0, 0, 0, 0, 0, 0, 0, 0, 0, 0, 0, 0, 0, 0, 0, 0, 0, 0, 0, 0, 0, 0, 0, 0, 0, 0, 0, 0, 0, 0, 0, 0, 0, 0, 0, 0, 0, 0, 0, 0, 0, 0, 0, 0, 0, 0, 0, 0, 0, 0, 0, 0, 0, 0, 0, 0, 0
0, 0, 57, 0, 1, 9, 10, 20, 26, 39, 73, 52, 94, 125, 111, 162, 140, 182, 178, 219, 173, 169, 199, 190, 221, 194, 171, 165, 150, 143, 179, 151, 146, 149, 129, 101, 113, 92, 82, 93, 67, 62, 58, 28, 39, 17, 0, 0, 0, 0, 0, 0, 0, 0, 0, 0, 0, 0, 0, 0, 0, 0, 0, 0, 0, 0, 0, 0, 0, 0, 0, 0, 0, 0, 0, 0, 0, 0, 0, 0, 0, 0, 0, 0, 0, 0, 0, 0, 0, 0, 0, 0, 0, 0, 0, 0, 0, 0, 0, 0, 0, 0, 0, 0, 0, 0
0, 0, 58, 6, 1, 9, 11, 28, 29, 55, 86, 85, 84, 128, 167, 177, 185, 196, 190, 208, 225, 237, 197, 253, 234, 246, 235, 195, 208, 177, 206, 182, 192, 147, 164, 137, 128, 107, 121, 104, 94, 91, 61, 53, 53, 16, 0, 0, 0, 0, 0, 0, 0, 0, 0, 0, 0, 0, 0, 0, 0, 0, 0, 0, 0, 0, 0, 0, 0, 0, 0, 0, 0, 0, 0, 0, 0, 0, 0, 0, 0, 0, 0, 0, 0, 0, 0, 0, 0, 0, 0, 0, 0, 0, 0, 0, 0, 0, 0, 0, 0, 0, 0, 0, 0, 0
0, 0, 59, 0, 6, 4, 15, 28, 36, 55, 96, 87, 119, 124, 162, 180, 205, 197, 257, 264, 248, 308, 203, 248, 227, 226, 240, 237, 241, 217, 179, 166, 173, 165, 147, 136, 152, 132, 107, 98, 75, 71, 67, 38, 37, 20, 1, 0, 0, 0, 0, 0, 0, 0, 0, 0, 0, 0, 0, 0, 0, 0, 0, 0, 0, 0, 0, 0, 0, 0, 0, 0, 0, 0, 0, 0, 0, 0, 0, 0, 0, 0, 0, 0, 0, 0, 0, 0, 0, 0, 0, 0, 0, 0, 0, 0, 0, 0, 0, 0, 0, 0, 0, 0, 0, 0
0, 0, 60, 3, 3, 11, 10, 19, 43, 62, 133, 94, 101, 153, 172, 204, 229, 222, 214, 221, 248, 262, 214, 250, 249, 250, 243, 220, 193, 228, 196, 166, 164, 172, 170, 154, 135, 146, 97, 104, 82, 67, 70, 58, 37, 16, 2, 0, 0, 0, 0, 0, 0, 0, 0, 0, 0, 0, 0, 0, 0, 0, 0, 0, 0, 0, 0, 0, 0, 0, 0, 0, 0, 0, 0, 0, 0, 0, 0, 0, 0, 0, 0, 0, 0, 0, 0, 0, 0, 0, 0, 0, 0, 0, 0, 0, 0, 0, 0, 0, 0, 0, 0, 0, 0, 0
0, 0, 61, 1, 0, 8, 12, 36, 54, 57, 116, 108, 112, 135, 164, 203, 194, 189, 218, 238, 268, 264, 242, 258, 257, 267, 242, 254, 212, 240, 197, 197, 186, 170, 160, 132, 138, 96, 118, 110, 89, 72, 60, 53, 36, 17, 1, 0, 0, 0, 0, 0, 0, 0, 0, 0, 0, 0, 0, 0, 0, 0, 0, 0, 0, 0, 0, 0, 0, 0, 0, 0, 0, 0, 0, 0, 0, 0, 0, 0, 0, 0, 0, 0, 0, 0, 0, 0, 0, 0, 0, 0, 0, 0, 0, 0, 0, 0, 0, 0, 0, 0, 0, 0, 0, 0
0, 0, 62, 1, 5, 8, 17, 19, 39, 64, 129, 94, 111, 125, 156, 185, 197, 246, 240, 265, 245, 241, 244, 225, 274, 235, 242, 236, 243, 210, 213, 173, 173, 149, 164, 143, 150, 118, 115, 107, 100, 85, 63, 52, 32, 23, 3, 0, 0, 0, 0, 0, 0, 0, 0, 0, 0, 0, 0, 0, 0, 0, 0, 0, 0, 0, 0, 0, 0, 0, 0, 0, 0, 0, 0, 0, 0, 0, 0, 0, 0, 0, 0, 0, 0, 0, 0, 0, 0, 0, 0, 0, 0, 0, 0, 0, 0, 0, 0, 0, 0, 0, 0, 0, 0, 0
0, 0, 63, 1, 4, 10, 9, 28, 38, 55, 108, 105, 119, 118, 163, 173, 224, 204, 226, 257, 272, 274, 288, 246, 219, 243, 249, 229, 197, 211, 190, 186, 173, 164, 169, 135, 136, 130, 131, 95, 78, 69, 74, 46, 31, 14, 2, 0, 0, 0, 0, 0, 0, 0, 0, 0, 0, 0, 0, 0, 0, 0, 0, 0, 0, 0, 0, 0, 0, 0, 0, 0, 0, 0, 0, 0, 0, 0, 0, 0, 0, 0, 0, 0, 0, 0, 0, 0, 0, 0, 0, 0, 0, 0, 0, 0, 0, 0, 0, 0, 0, 0, 0, 0, 0, 0
0, 0, 64, 0, 2, 7, 14, 24, 45, 59, 117, 88, 113, 153, 177, 189, 201, 193, 216, 244, 231, 263, 268, 266, 229, 258, 224, 223, 232, 226, 196, 154, 172, 170, 174, 155, 103, 128, 123, 104, 94, 70, 66, 71, 46, 23, 2, 0, 0, 0, 0, 0, 0, 0, 0, 0, 0, 0, 0, 0, 0, 0, 0, 0, 0, 0, 0, 0, 0, 0, 0, 0, 0, 0, 0, 0, 0, 0, 0, 0, 0, 0, 0, 0, 0, 0, 0, 0, 0, 0, 0, 0, 0, 0, 0, 0, 0, 0, 0, 0, 0, 0, 0, 0, 0, 0
0, 0, 65, 0, 5, 11, 13, 31, 29, 64, 116, 88, 109, 135, 173, 206, 172, 207, 248, 251, 247, 259, 247, 245, 272, 260, 256, 215, 211, 210, 164, 172, 167, 174, 152, 172, 149, 127, 124, 120, 92, 83, 65, 53, 37, 23, 2, 0, 0, 0, 0, 0, 0, 0, 0, 0, 0, 0, 0, 0, 0, 0, 0, 0, 0, 0, 0, 0, 0, 0, 0, 0, 0, 0, 0, 0, 0, 0, 0, 0, 0, 0, 0, 0, 0, 0, 0, 0, 0, 0, 0, 0, 0, 0, 0, 0, 0, 0, 0, 0, 0, 0, 0, 0, 0, 0
0, 0, 66, 2, 7, 6, 13, 35, 34, 58, 120, 93, 95, 150, 166, 185, 203, 219, 239, 234, 243, 259, 243, 264, 261, 230, 243, 223, 231, 211, 185, 188, 191, 183, 153, 133, 121, 109, 121, 87, 89, 87, 62, 53, 35, 25, 1, 0, 0, 0, 0, 0, 0, 0, 0, 0, 0, 0, 0, 0, 0, 0, 0, 0, 0, 0, 0, 0, 0, 0, 0, 0, 0, 0, 0, 0, 0, 0, 0, 0, 0, 0, 0, 0, 0, 0, 0, 0, 0, 0, 0, 0, 0, 0, 0, 0, 0, 0, 0, 0, 0, 0, 0, 0, 0, 0
0, 0, 67, 2, 6, 9, 14, 30, 35, 52, 141, 84, 97, 136, 188, 196, 183, 210, 217, 236, 264, 245, 254, 229, 255, 220, 223, 213, 216, 167, 194, 192, 158, 184, 127, 167, 125, 133, 122, 111, 94, 88, 52, 54, 43, 15, 0, 0, 0, 0, 0, 0, 0, 0, 0, 0, 0, 0, 0, 0, 0, 0, 0, 0, 0, 0, 0, 0, 0, 0, 0, 0, 0, 0, 0, 0, 0, 0, 0, 0, 0, 0, 0, 0, 0, 0, 0, 0, 0, 0, 0, 0, 0, 0, 0, 0, 0, 0, 0, 0, 0, 0, 0, 0, 0, 0
0, 0, 68, 3, 1, 6, 9, 24, 27, 71, 119, 85, 110, 141, 181, 203, 199, 236, 221, 205, 229, 226, 237, 238, 245, 229, 261, 227, 214, 223, 230, 195, 200, 180, 157, 161, 117, 138, 128, 104, 85, 76, 78, 54, 32, 19, 4, 0, 0, 0, 0, 0, 0, 0, 0, 0, 0, 0, 0, 0, 0, 0, 0, 0, 0, 0, 0, 0, 0, 0, 0, 0, 0, 0, 0, 0, 0, 0, 0, 0, 0, 0, 0, 0, 0, 0, 0, 0, 0, 0, 0, 0, 0, 0, 0, 0, 0, 0, 0, 0, 0, 0, 0, 0, 0, 0
0, 0, 69, 0, 0, 4, 16, 26, 35, 70, 133, 99, 121, 134, 158, 182, 207, 234, 223, 241, 215, 269, 242, 234, 260, 225, 231, 200, 229, 195, 201, 186, 165, 186, 164, 137, 130, 113, 102, 96, 81, 66, 84, 59, 52, 20, 1, 0, 0, 0, 0, 0, 0, 0, 0, 0, 0, 0, 0, 0, 0, 0, 0, 0, 0, 0, 0, 0, 0, 0, 0, 0, 0, 0, 0, 0, 0, 0, 0, 0, 0, 0, 0, 0, 0, 0, 0, 0, 0, 0, 0, 0, 0, 0, 0, 0, 0, 0, 0, 0, 0, 0, 0, 0, 0, 0
0, 0, 70, 3, 3, 6, 18, 25, 36, 63, 130, 89, 105, 154, 178, 205, 197, 209, 222, 231, 259, 241, 240, 258, 248, 202, 248, 226, 216, 217, 168, 166, 212, 146, 166, 166, 143, 132, 117, 101, 98, 75, 80, 51, 35, 24, 0, 0, 0, 0, 0, 0, 0, 0, 0, 0, 0, 0, 0, 0, 0, 0, 0, 0, 0, 0, 0, 0, 0, 0, 0, 0, 0, 0, 0, 0, 0, 0, 0, 0, 0, 0, 0, 0, 0, 0, 0, 0, 0, 0, 0, 0, 0, 0, 0, 0, 0, 0, 0, 0, 0, 0, 0, 0, 0, 0
0, 0, 71, 2, 6, 4, 12, 33, 40, 45, 118, 84, 101, 152, 180, 210, 185, 207, 222, 231, 230, 242, 251, 285, 245, 229, 230, 211, 240, 197, 198, 193, 189, 165, 187, 155, 118, 136, 142, 109, 102, 73, 80, 60, 33, 24, 1, 0, 0, 0, 0, 0, 0, 0, 0, 0, 0, 0, 0, 0, 0, 0, 0, 0, 0, 0, 0, 0, 0, 0, 0, 0, 0, 0, 0, 0, 0, 0, 0, 0, 0, 0, 0, 0, 0, 0, 0, 0, 0, 0, 0, 0, 0, 0, 0, 0, 0, 0, 0, 0, 0, 0, 0, 0, 0, 0
0, 0, 72, 4, 1, 9, 20, 29, 42, 59, 114, 83, 105, 130, 194, 203, 200, 219, 191, 270, 246, 249, 252, 267, 232, 271, 211, 206, 195, 238, 206, 184, 181, 159, 156, 159, 131, 131, 121, 87, 96, 73, 75, 57, 41, 19, 1, 0, 0, 0, 0, 0, 0, 0, 0, 0, 0, 0, 0, 0, 0, 0, 0, 0, 0, 0, 0, 0, 0, 0, 0, 0, 0, 0, 0, 0, 0, 0, 0, 0, 0, 0, 0, 0, 0, 0, 0, 0, 0, 0, 0, 0, 0, 0, 0, 0, 0, 0, 0, 0, 0, 0, 0, 0, 0, 0
0, 0, 73, 1, 7, 11, 14, 21, 30, 60, 114, 92, 122, 134, 169, 223, 183, 228, 225, 253, 217, 265, 246, 229, 231, 241, 222, 251, 224, 213, 193, 183, 213, 135, 136, 147, 142, 127, 106, 103, 101, 74, 93, 48, 36, 20, 2, 0, 0, 0, 0, 0, 0, 0, 0, 0, 0, 0, 0, 0, 0, 0, 0, 0, 0, 0, 0, 0, 0, 0, 0, 0, 0, 0, 0, 0, 0, 0, 0, 0, 0, 0, 0, 0, 0, 0, 0, 0, 0, 0, 0, 0, 0, 0, 0, 0, 0, 0, 0, 0, 0, 0, 0, 0, 0, 0
0, 0, 74, 2, 8, 5, 15, 25, 39, 44, 122, 105, 99, 162, 195, 211, 194, 201, 258, 234, 285, 263, 226, 234, 219, 284, 251, 205, 206, 212, 216, 181, 167, 156, 155, 135, 150, 137, 123, 95, 98, 81, 69, 63, 46, 17, 1, 0, 0, 0, 0, 0, 0, 0, 0, 0, 0, 0, 0, 0, 0, 0, 0, 0, 0, 0, 0, 0, 0, 0, 0, 0, 0, 0, 0, 0, 0, 0, 0, 0, 0, 0, 0, 0, 0, 0, 0, 0, 0, 0, 0, 0, 0, 0, 0, 0, 0, 0, 0, 0, 0, 0, 0, 0, 0, 0
0, 0, 75, 1, 3, 11, 20, 31, 44, 40, 108, 91, 102, 153, 176, 200, 203, 218, 216, 201, 227, 270, 233, 245, 255, 210, 241, 232, 225, 208, 212, 189, 181, 170, 181, 126, 148, 126, 113, 113, 91, 81, 83, 48, 42, 24, 2, 0, 0, 0, 0, 0, 0, 0, 0, 0, 0, 0, 0, 0, 0, 0, 0, 0, 0, 0, 0, 0, 0, 0, 0, 0, 0, 0, 0, 0, 0, 0, 0, 0, 0, 0, 0, 0, 0, 0, 0, 0, 0, 0, 0, 0, 0, 0, 0, 0, 0, 0, 0, 0, 0, 0, 0, 0, 0, 0
0, 0, 76, 5, 2, 10, 15, 31, 36, 68, 129, 102, 146, 157, 171, 162, 216, 215, 220, 250, 233, 240, 264, 235, 222, 238, 227, 230, 215, 195, 205, 175, 189, 175, 181, 163, 140, 133, 104, 90, 91, 74, 64, 58, 39, 17, 1, 0, 0, 0, 0, 0, 0, 0, 0, 0, 0, 0, 0, 0, 0, 0, 0, 0, 0, 0, 0, 0, 0, 0, 0, 0, 0, 0, 0, 0, 0, 0, 0, 0, 0, 0, 0, 0, 0, 0, 0, 0, 0, 0, 0, 0, 0, 0, 0, 0, 0, 0, 0, 0, 0, 0, 0, 0, 0, 0
0, 0, 77, 8, 7, 2, 13, 20, 39, 58, 105, 107, 102, 132, 170, 214, 203, 210, 213, 243, 242, 283, 252, 259, 251, 234, 230, 202, 216, 195, 193, 188, 193, 178, 171, 140, 135, 144, 136, 123, 94, 59, 61, 56, 42, 18, 1, 0, 0, 0, 0, 0, 0, 0, 0, 0, 0, 0, 0, 0, 0, 0, 0, 0, 0, 0, 0, 0, 0, 0, 0, 0, 0, 0, 0, 0, 0, 0, 0, 0, 0, 0, 0, 0, 0, 0, 0, 0, 0, 0, 0, 0, 0, 0, 0, 0, 0, 0, 0, 0, 0, 0, 0, 0, 0, 0
