# TOPAS Version: 3.1.p3
# Parameter File: REDLEN_small_phantom_mc_basic_4cm.txt
# Results for scorer PhantomDose
# Scored on surface: CdTeCrystal1/YPlusSurface
# X in 100 bins of 0.03332 cm
# Y in 1 bin  of 0.4 cm
# Z in 100 bins of 0.0375 cm
# SurfaceTrackCount : Sum   
# Binned by incident track energy in 100 bins of 0.00104 MeV from 0.016 MeV to 0.12 MeV
# First bin is underflow, next to last bin is overflow, last bin is for case of no incident track.
0, 0, 0, 0, 0, 0, 0, 0, 1, 0, 0, 0, 0, 1, 0, 2, 2, 3, 2, 0, 4, 4, 2, 1, 4, 5, 1, 3, 0, 3, 2, 1, 2, 0, 2, 2, 3, 1, 1, 1, 1, 2, 0, 2, 0, 0, 0, 0, 0, 0, 0, 0, 0, 0, 0, 0, 0, 0, 0, 0, 0, 0, 0, 0, 0, 0, 0, 0, 0, 0, 0, 0, 0, 0, 0, 0, 0, 0, 0, 0, 0, 0, 0, 0, 0, 0, 0, 0, 0, 0, 0, 0, 0, 0, 0, 0, 0, 0, 0, 0, 0, 0, 0, 0, 0, 0
0, 0, 1, 0, 0, 0, 0, 0, 0, 0, 0, 0, 0, 2, 1, 2, 1, 4, 1, 1, 3, 6, 3, 3, 1, 4, 1, 1, 3, 3, 2, 4, 5, 1, 1, 1, 4, 1, 1, 3, 1, 1, 3, 0, 0, 0, 0, 0, 0, 0, 0, 0, 0, 0, 0, 0, 0, 0, 0, 0, 0, 0, 0, 0, 0, 0, 0, 0, 0, 0, 0, 0, 0, 0, 0, 0, 0, 0, 0, 0, 0, 0, 0, 0, 0, 0, 0, 0, 0, 0, 0, 0, 0, 0, 0, 0, 0, 0, 0, 0, 0, 0, 0, 0, 0, 0
0, 0, 2, 0, 3, 0, 0, 0, 0, 0, 1, 0, 0, 0, 1, 0, 4, 0, 2, 6, 3, 2, 3, 2, 4, 7, 3, 4, 3, 2, 2, 0, 0, 2, 4, 1, 1, 1, 1, 1, 1, 3, 0, 0, 0, 0, 0, 0, 0, 0, 0, 0, 0, 0, 0, 0, 0, 0, 0, 0, 0, 0, 0, 0, 0, 0, 0, 0, 0, 0, 0, 0, 0, 0, 0, 0, 0, 0, 0, 0, 0, 0, 0, 0, 0, 0, 0, 0, 0, 0, 0, 0, 0, 0, 0, 0, 0, 0, 0, 0, 0, 0, 0, 0, 0, 0
0, 0, 3, 0, 0, 0, 0, 0, 0, 1, 2, 0, 1, 1, 1, 2, 4, 1, 1, 5, 2, 1, 1, 0, 3, 1, 3, 1, 2, 1, 0, 2, 3, 1, 1, 2, 0, 0, 4, 0, 1, 1, 0, 0, 0, 0, 0, 0, 0, 0, 0, 0, 0, 0, 0, 0, 0, 0, 0, 0, 0, 0, 0, 0, 0, 0, 0, 0, 0, 0, 0, 0, 0, 0, 0, 0, 0, 0, 0, 0, 0, 0, 0, 0, 0, 0, 0, 0, 0, 0, 0, 0, 0, 0, 0, 0, 0, 0, 0, 0, 0, 0, 0, 0, 0, 0
0, 0, 4, 2, 0, 0, 0, 0, 0, 0, 0, 0, 0, 0, 2, 0, 0, 1, 3, 1, 1, 0, 3, 3, 1, 1, 2, 1, 1, 2, 2, 1, 3, 3, 3, 3, 5, 2, 1, 0, 2, 1, 2, 0, 3, 0, 0, 0, 0, 0, 0, 0, 0, 0, 0, 0, 0, 0, 0, 0, 0, 0, 0, 0, 0, 0, 0, 0, 0, 0, 0, 0, 0, 0, 0, 0, 0, 0, 0, 0, 0, 0, 0, 0, 0, 0, 0, 0, 0, 0, 0, 0, 0, 0, 0, 0, 0, 0, 0, 0, 0, 0, 0, 0, 0, 0
0, 0, 5, 1, 3, 5, 7, 8, 16, 26, 46, 35, 49, 69, 75, 78, 87, 81, 81, 136, 100, 98, 114, 99, 104, 91, 90, 80, 77, 94, 96, 81, 82, 84, 87, 60, 66, 51, 43, 44, 49, 35, 37, 29, 11, 6, 0, 0, 0, 0, 0, 0, 0, 0, 0, 0, 0, 0, 0, 0, 0, 0, 0, 0, 0, 0, 0, 0, 0, 0, 0, 0, 0, 0, 0, 0, 0, 0, 0, 0, 0, 0, 0, 0, 0, 0, 0, 0, 0, 0, 0, 0, 0, 0, 0, 0, 0, 0, 0, 0, 0, 0, 0, 0, 0, 0
0, 0, 6, 0, 3, 7, 13, 21, 39, 60, 102, 93, 105, 149, 159, 195, 208, 211, 242, 255, 250, 270, 230, 241, 207, 207, 215, 224, 202, 193, 181, 187, 167, 171, 153, 169, 112, 87, 112, 112, 76, 82, 61, 53, 36, 24, 2, 0, 0, 0, 0, 0, 0, 0, 0, 0, 0, 0, 0, 0, 0, 0, 0, 0, 0, 0, 0, 0, 0, 0, 0, 0, 0, 0, 0, 0, 0, 0, 0, 0, 0, 0, 0, 0, 0, 0, 0, 0, 0, 0, 0, 0, 0, 0, 0, 0, 0, 0, 0, 0, 0, 0, 0, 0, 0, 0
0, 0, 7, 0, 3, 8, 12, 30, 35, 44, 113, 98, 96, 135, 164, 195, 212, 195, 232, 260, 273, 213, 241, 261, 227, 257, 207, 220, 200, 198, 187, 186, 179, 156, 162, 148, 114, 140, 134, 110, 73, 64, 66, 55, 36, 22, 2, 0, 0, 0, 0, 0, 0, 0, 0, 0, 0, 0, 0, 0, 0, 0, 0, 0, 0, 0, 0, 0, 0, 0, 0, 0, 0, 0, 0, 0, 0, 0, 0, 0, 0, 0, 0, 0, 0, 0, 0, 0, 0, 0, 0, 0, 0, 0, 0, 0, 0, 0, 0, 0, 0, 0, 0, 0, 0, 0
0, 0, 8, 1, 4, 7, 16, 22, 37, 45, 123, 92, 122, 121, 186, 212, 204, 184, 220, 242, 270, 236, 257, 255, 237, 224, 235, 220, 209, 213, 186, 166, 180, 165, 161, 146, 129, 123, 96, 89, 64, 82, 57, 60, 38, 22, 1, 0, 0, 0, 0, 0, 0, 0, 0, 0, 0, 0, 0, 0, 0, 0, 0, 0, 0, 0, 0, 0, 0, 0, 0, 0, 0, 0, 0, 0, 0, 0, 0, 0, 0, 0, 0, 0, 0, 0, 0, 0, 0, 0, 0, 0, 0, 0, 0, 0, 0, 0, 0, 0, 0, 0, 0, 0, 0, 0
0, 0, 9, 4, 3, 7, 11, 25, 42, 60, 126, 102, 112, 149, 181, 202, 193, 187, 227, 257, 260, 249, 249, 256, 227, 241, 262, 227, 225, 219, 177, 182, 166, 168, 177, 134, 130, 139, 97, 93, 77, 80, 57, 63, 39, 22, 0, 0, 0, 0, 0, 0, 0, 0, 0, 0, 0, 0, 0, 0, 0, 0, 0, 0, 0, 0, 0, 0, 0, 0, 0, 0, 0, 0, 0, 0, 0, 0, 0, 0, 0, 0, 0, 0, 0, 0, 0, 0, 0, 0, 0, 0, 0, 0, 0, 0, 0, 0, 0, 0, 0, 0, 0, 0, 0, 0
0, 0, 10, 2, 3, 7, 13, 21, 52, 55, 100, 105, 120, 146, 162, 187, 169, 222, 222, 244, 251, 238, 232, 218, 239, 241, 238, 255, 211, 213, 189, 177, 191, 176, 142, 159, 121, 120, 107, 106, 98, 72, 72, 54, 36, 18, 1, 0, 0, 0, 0, 0, 0, 0, 0, 0, 0, 0, 0, 0, 0, 0, 0, 0, 0, 0, 0, 0, 0, 0, 0, 0, 0, 0, 0, 0, 0, 0, 0, 0, 0, 0, 0, 0, 0, 0, 0, 0, 0, 0, 0, 0, 0, 0, 0, 0, 0, 0, 0, 0, 0, 0, 0, 0, 0, 0
0, 0, 11, 3, 5, 3, 12, 18, 38, 58, 112, 97, 122, 146, 171, 203, 214, 220, 230, 241, 269, 261, 268, 253, 219, 254, 208, 230, 222, 221, 182, 186, 167, 180, 172, 135, 132, 139, 131, 93, 93, 91, 72, 56, 40, 18, 2, 0, 0, 0, 0, 0, 0, 0, 0, 0, 0, 0, 0, 0, 0, 0, 0, 0, 0, 0, 0, 0, 0, 0, 0, 0, 0, 0, 0, 0, 0, 0, 0, 0, 0, 0, 0, 0, 0, 0, 0, 0, 0, 0, 0, 0, 0, 0, 0, 0, 0, 0, 0, 0, 0, 0, 0, 0, 0, 0
0, 0, 12, 3, 2, 6, 13, 29, 31, 50, 120, 88, 125, 152, 172, 171, 180, 176, 213, 230, 267, 244, 253, 247, 240, 230, 243, 208, 200, 208, 194, 197, 186, 173, 176, 139, 134, 123, 114, 107, 79, 65, 69, 47, 42, 17, 1, 0, 0, 0, 0, 0, 0, 0, 0, 0, 0, 0, 0, 0, 0, 0, 0, 0, 0, 0, 0, 0, 0, 0, 0, 0, 0, 0, 0, 0, 0, 0, 0, 0, 0, 0, 0, 0, 0, 0, 0, 0, 0, 0, 0, 0, 0, 0, 0, 0, 0, 0, 0, 0, 0, 0, 0, 0, 0, 0
0, 0, 13, 0, 3, 2, 11, 25, 44, 63, 111, 98, 118, 154, 177, 199, 205, 226, 218, 235, 278, 243, 212, 231, 244, 246, 246, 210, 237, 198, 176, 190, 193, 161, 163, 133, 135, 117, 112, 106, 113, 72, 73, 59, 38, 19, 0, 0, 0, 0, 0, 0, 0, 0, 0, 0, 0, 0, 0, 0, 0, 0, 0, 0, 0, 0, 0, 0, 0, 0, 0, 0, 0, 0, 0, 0, 0, 0, 0, 0, 0, 0, 0, 0, 0, 0, 0, 0, 0, 0, 0, 0, 0, 0, 0, 0, 0, 0, 0, 0, 0, 0, 0, 0, 0, 0
0, 0, 14, 1, 3, 5, 12, 20, 38, 56, 123, 109, 124, 130, 178, 205, 179, 217, 242, 240, 237, 275, 252, 251, 241, 240, 236, 231, 239, 218, 204, 203, 213, 158, 150, 182, 143, 109, 115, 86, 85, 70, 70, 63, 45, 17, 1, 0, 0, 0, 0, 0, 0, 0, 0, 0, 0, 0, 0, 0, 0, 0, 0, 0, 0, 0, 0, 0, 0, 0, 0, 0, 0, 0, 0, 0, 0, 0, 0, 0, 0, 0, 0, 0, 0, 0, 0, 0, 0, 0, 0, 0, 0, 0, 0, 0, 0, 0, 0, 0, 0, 0, 0, 0, 0, 0
0, 0, 15, 7, 2, 5, 13, 24, 59, 46, 105, 94, 136, 144, 149, 191, 212, 223, 189, 220, 260, 233, 240, 245, 250, 254, 206, 216, 252, 218, 228, 174, 174, 153, 145, 140, 139, 133, 126, 112, 86, 75, 73, 54, 40, 32, 0, 0, 0, 0, 0, 0, 0, 0, 0, 0, 0, 0, 0, 0, 0, 0, 0, 0, 0, 0, 0, 0, 0, 0, 0, 0, 0, 0, 0, 0, 0, 0, 0, 0, 0, 0, 0, 0, 0, 0, 0, 0, 0, 0, 0, 0, 0, 0, 0, 0, 0, 0, 0, 0, 0, 0, 0, 0, 0, 0
0, 0, 16, 5, 4, 2, 15, 28, 37, 55, 135, 102, 124, 130, 157, 220, 222, 214, 198, 238, 216, 256, 273, 268, 249, 221, 242, 215, 218, 215, 206, 209, 167, 176, 148, 172, 136, 116, 116, 122, 81, 73, 58, 64, 49, 22, 1, 0, 0, 0, 0, 0, 0, 0, 0, 0, 0, 0, 0, 0, 0, 0, 0, 0, 0, 0, 0, 0, 0, 0, 0, 0, 0, 0, 0, 0, 0, 0, 0, 0, 0, 0, 0, 0, 0, 0, 0, 0, 0, 0, 0, 0, 0, 0, 0, 0, 0, 0, 0, 0, 0, 0, 0, 0, 0, 0
0, 0, 17, 1, 1, 11, 17, 28, 40, 53, 96, 107, 101, 125, 186, 207, 223, 214, 231, 232, 254, 249, 273, 243, 274, 237, 210, 203, 199, 183, 193, 184, 187, 186, 149, 154, 127, 121, 132, 92, 91, 71, 65, 57, 43, 16, 0, 0, 0, 0, 0, 0, 0, 0, 0, 0, 0, 0, 0, 0, 0, 0, 0, 0, 0, 0, 0, 0, 0, 0, 0, 0, 0, 0, 0, 0, 0, 0, 0, 0, 0, 0, 0, 0, 0, 0, 0, 0, 0, 0, 0, 0, 0, 0, 0, 0, 0, 0, 0, 0, 0, 0, 0, 0, 0, 0
0, 0, 18, 3, 4, 7, 22, 17, 37, 59, 120, 84, 118, 153, 176, 212, 216, 220, 233, 247, 238, 266, 237, 260, 250, 229, 213, 229, 196, 186, 211, 166, 179, 188, 169, 154, 152, 122, 113, 128, 86, 81, 83, 55, 47, 24, 3, 0, 0, 0, 0, 0, 0, 0, 0, 0, 0, 0, 0, 0, 0, 0, 0, 0, 0, 0, 0, 0, 0, 0, 0, 0, 0, 0, 0, 0, 0, 0, 0, 0, 0, 0, 0, 0, 0, 0, 0, 0, 0, 0, 0, 0, 0, 0, 0, 0, 0, 0, 0, 0, 0, 0, 0, 0, 0, 0
0, 0, 19, 4, 3, 7, 15, 21, 37, 52, 110, 96, 125, 148, 174, 189, 194, 188, 230, 219, 259, 268, 274, 268, 257, 222, 208, 226, 203, 204, 193, 163, 196, 174, 134, 155, 125, 126, 107, 100, 94, 69, 66, 49, 34, 23, 2, 0, 0, 0, 0, 0, 0, 0, 0, 0, 0, 0, 0, 0, 0, 0, 0, 0, 0, 0, 0, 0, 0, 0, 0, 0, 0, 0, 0, 0, 0, 0, 0, 0, 0, 0, 0, 0, 0, 0, 0, 0, 0, 0, 0, 0, 0, 0, 0, 0, 0, 0, 0, 0, 0, 0, 0, 0, 0, 0
0, 0, 20, 5, 3, 7, 16, 31, 39, 73, 123, 110, 116, 167, 171, 204, 180, 188, 218, 246, 296, 274, 226, 252, 209, 227, 247, 216, 249, 212, 211, 187, 182, 152, 134, 157, 141, 119, 115, 96, 107, 103, 86, 58, 43, 27, 3, 0, 0, 0, 0, 0, 0, 0, 0, 0, 0, 0, 0, 0, 0, 0, 0, 0, 0, 0, 0, 0, 0, 0, 0, 0, 0, 0, 0, 0, 0, 0, 0, 0, 0, 0, 0, 0, 0, 0, 0, 0, 0, 0, 0, 0, 0, 0, 0, 0, 0, 0, 0, 0, 0, 0, 0, 0, 0, 0
0, 0, 21, 11, 2, 4, 14, 18, 49, 65, 130, 84, 144, 172, 180, 217, 193, 218, 258, 243, 247, 261, 241, 243, 249, 247, 189, 242, 234, 242, 192, 202, 188, 165, 163, 152, 140, 121, 111, 113, 89, 114, 68, 54, 26, 19, 0, 0, 0, 0, 0, 0, 0, 0, 0, 0, 0, 0, 0, 0, 0, 0, 0, 0, 0, 0, 0, 0, 0, 0, 0, 0, 0, 0, 0, 0, 0, 0, 0, 0, 0, 0, 0, 0, 0, 0, 0, 0, 0, 0, 0, 0, 0, 0, 0, 0, 0, 0, 0, 0, 0, 0, 0, 0, 0, 0
0, 0, 22, 2, 4, 7, 17, 22, 54, 54, 140, 102, 121, 135, 171, 193, 181, 183, 222, 273, 240, 237, 245, 229, 243, 226, 221, 228, 204, 191, 186, 192, 171, 176, 179, 141, 115, 134, 116, 105, 89, 98, 77, 50, 33, 20, 0, 0, 0, 0, 0, 0, 0, 0, 0, 0, 0, 0, 0, 0, 0, 0, 0, 0, 0, 0, 0, 0, 0, 0, 0, 0, 0, 0, 0, 0, 0, 0, 0, 0, 0, 0, 0, 0, 0, 0, 0, 0, 0, 0, 0, 0, 0, 0, 0, 0, 0, 0, 0, 0, 0, 0, 0, 0, 0, 0
0, 0, 23, 5, 4, 8, 14, 22, 39, 62, 125, 100, 127, 144, 188, 157, 197, 214, 227, 236, 242, 284, 252, 232, 231, 239, 235, 234, 203, 214, 208, 162, 193, 168, 148, 159, 134, 104, 107, 91, 90, 92, 80, 56, 44, 11, 0, 0, 0, 0, 0, 0, 0, 0, 0, 0, 0, 0, 0, 0, 0, 0, 0, 0, 0, 0, 0, 0, 0, 0, 0, 0, 0, 0, 0, 0, 0, 0, 0, 0, 0, 0, 0, 0, 0, 0, 0, 0, 0, 0, 0, 0, 0, 0, 0, 0, 0, 0, 0, 0, 0, 0, 0, 0, 0, 0
0, 0, 24, 4, 3, 10, 13, 17, 44, 72, 107, 78, 123, 148, 180, 181, 212, 227, 249, 263, 216, 254, 259, 270, 251, 259, 216, 219, 200, 208, 215, 188, 206, 164, 174, 154, 121, 133, 100, 111, 81, 85, 54, 56, 47, 19, 0, 0, 0, 0, 0, 0, 0, 0, 0, 0, 0, 0, 0, 0, 0, 0, 0, 0, 0, 0, 0, 0, 0, 0, 0, 0, 0, 0, 0, 0, 0, 0, 0, 0, 0, 0, 0, 0, 0, 0, 0, 0, 0, 0, 0, 0, 0, 0, 0, 0, 0, 0, 0, 0, 0, 0, 0, 0, 0, 0
0, 0, 25, 3, 2, 2, 13, 23, 36, 56, 123, 103, 116, 151, 160, 191, 221, 229, 244, 235, 251, 260, 235, 248, 246, 264, 226, 245, 236, 208, 217, 198, 185, 151, 168, 170, 117, 110, 107, 102, 70, 62, 89, 59, 29, 16, 1, 0, 0, 0, 0, 0, 0, 0, 0, 0, 0, 0, 0, 0, 0, 0, 0, 0, 0, 0, 0, 0, 0, 0, 0, 0, 0, 0, 0, 0, 0, 0, 0, 0, 0, 0, 0, 0, 0, 0, 0, 0, 0, 0, 0, 0, 0, 0, 0, 0, 0, 0, 0, 0, 0, 0, 0, 0, 0, 0
0, 0, 26, 4, 6, 5, 15, 30, 47, 51, 128, 85, 97, 161, 163, 239, 214, 227, 239, 250, 280, 256, 252, 257, 227, 257, 233, 208, 245, 177, 179, 183, 167, 154, 134, 135, 146, 118, 107, 89, 94, 108, 60, 52, 44, 26, 0, 0, 0, 0, 0, 0, 0, 0, 0, 0, 0, 0, 0, 0, 0, 0, 0, 0, 0, 0, 0, 0, 0, 0, 0, 0, 0, 0, 0, 0, 0, 0, 0, 0, 0, 0, 0, 0, 0, 0, 0, 0, 0, 0, 0, 0, 0, 0, 0, 0, 0, 0, 0, 0, 0, 0, 0, 0, 0, 0
0, 0, 27, 4, 4, 7, 17, 33, 32, 57, 132, 77, 126, 130, 182, 184, 185, 213, 192, 255, 239, 240, 277, 252, 247, 242, 267, 241, 190, 180, 212, 176, 191, 158, 168, 158, 139, 126, 113, 105, 88, 85, 61, 42, 43, 18, 3, 0, 0, 0, 0, 0, 0, 0, 0, 0, 0, 0, 0, 0, 0, 0, 0, 0, 0, 0, 0, 0, 0, 0, 0, 0, 0, 0, 0, 0, 0, 0, 0, 0, 0, 0, 0, 0, 0, 0, 0, 0, 0, 0, 0, 0, 0, 0, 0, 0, 0, 0, 0, 0, 0, 0, 0, 0, 0, 0
0, 0, 28, 2, 0, 8, 18, 32, 42, 52, 116, 82, 127, 167, 188, 169, 171, 216, 245, 238, 236, 267, 255, 261, 238, 228, 233, 229, 212, 189, 201, 160, 173, 191, 158, 133, 162, 137, 113, 92, 106, 82, 65, 49, 48, 19, 1, 0, 0, 0, 0, 0, 0, 0, 0, 0, 0, 0, 0, 0, 0, 0, 0, 0, 0, 0, 0, 0, 0, 0, 0, 0, 0, 0, 0, 0, 0, 0, 0, 0, 0, 0, 0, 0, 0, 0, 0, 0, 0, 0, 0, 0, 0, 0, 0, 0, 0, 0, 0, 0, 0, 0, 0, 0, 0, 0
0, 0, 29, 2, 3, 14, 15, 21, 21, 66, 115, 85, 109, 137, 185, 195, 226, 250, 221, 218, 209, 265, 245, 243, 242, 271, 255, 222, 233, 229, 208, 181, 192, 165, 159, 162, 135, 119, 115, 125, 92, 67, 69, 53, 38, 25, 1, 0, 0, 0, 0, 0, 0, 0, 0, 0, 0, 0, 0, 0, 0, 0, 0, 0, 0, 0, 0, 0, 0, 0, 0, 0, 0, 0, 0, 0, 0, 0, 0, 0, 0, 0, 0, 0, 0, 0, 0, 0, 0, 0, 0, 0, 0, 0, 0, 0, 0, 0, 0, 0, 0, 0, 0, 0, 0, 0
0, 0, 30, 1, 3, 10, 11, 24, 25, 55, 116, 93, 104, 157, 179, 181, 191, 221, 210, 255, 241, 230, 212, 252, 233, 287, 234, 212, 220, 207, 201, 208, 182, 175, 152, 173, 143, 119, 107, 132, 80, 85, 60, 52, 35, 13, 1, 0, 0, 0, 0, 0, 0, 0, 0, 0, 0, 0, 0, 0, 0, 0, 0, 0, 0, 0, 0, 0, 0, 0, 0, 0, 0, 0, 0, 0, 0, 0, 0, 0, 0, 0, 0, 0, 0, 0, 0, 0, 0, 0, 0, 0, 0, 0, 0, 0, 0, 0, 0, 0, 0, 0, 0, 0, 0, 0
0, 0, 31, 4, 2, 8, 15, 27, 41, 56, 110, 94, 113, 145, 141, 217, 218, 208, 216, 259, 216, 254, 261, 252, 219, 259, 205, 233, 199, 208, 198, 185, 164, 171, 154, 142, 135, 140, 92, 92, 104, 78, 78, 48, 41, 20, 0, 0, 0, 0, 0, 0, 0, 0, 0, 0, 0, 0, 0, 0, 0, 0, 0, 0, 0, 0, 0, 0, 0, 0, 0, 0, 0, 0, 0, 0, 0, 0, 0, 0, 0, 0, 0, 0, 0, 0, 0, 0, 0, 0, 0, 0, 0, 0, 0, 0, 0, 0, 0, 0, 0, 0, 0, 0, 0, 0
0, 0, 32, 3, 3, 6, 10, 40, 51, 50, 98, 86, 116, 148, 168, 213, 186, 244, 201, 255, 250, 254, 255, 245, 219, 266, 222, 249, 222, 192, 208, 192, 175, 167, 168, 143, 145, 124, 110, 102, 81, 80, 66, 41, 38, 7, 2, 0, 0, 0, 0, 0, 0, 0, 0, 0, 0, 0, 0, 0, 0, 0, 0, 0, 0, 0, 0, 0, 0, 0, 0, 0, 0, 0, 0, 0, 0, 0, 0, 0, 0, 0, 0, 0, 0, 0, 0, 0, 0, 0, 0, 0, 0, 0, 0, 0, 0, 0, 0, 0, 0, 0, 0, 0, 0, 0
0, 0, 33, 7, 2, 6, 14, 29, 33, 44, 139, 88, 106, 152, 163, 173, 201, 221, 211, 241, 264, 246, 247, 241, 234, 220, 240, 222, 204, 231, 197, 201, 182, 157, 171, 158, 166, 125, 125, 108, 87, 72, 69, 49, 33, 21, 3, 0, 0, 0, 0, 0, 0, 0, 0, 0, 0, 0, 0, 0, 0, 0, 0, 0, 0, 0, 0, 0, 0, 0, 0, 0, 0, 0, 0, 0, 0, 0, 0, 0, 0, 0, 0, 0, 0, 0, 0, 0, 0, 0, 0, 0, 0, 0, 0, 0, 0, 0, 0, 0, 0, 0, 0, 0, 0, 0
0, 0, 34, 0, 4, 4, 17, 22, 49, 55, 115, 98, 114, 146, 185, 175, 184, 207, 233, 237, 254, 259, 245, 250, 243, 244, 266, 232, 216, 228, 197, 163, 177, 168, 151, 149, 123, 145, 121, 109, 105, 62, 68, 51, 41, 17, 0, 0, 0, 0, 0, 0, 0, 0, 0, 0, 0, 0, 0, 0, 0, 0, 0, 0, 0, 0, 0, 0, 0, 0, 0, 0, 0, 0, 0, 0, 0, 0, 0, 0, 0, 0, 0, 0, 0, 0, 0, 0, 0, 0, 0, 0, 0, 0, 0, 0, 0, 0, 0, 0, 0, 0, 0, 0, 0, 0
0, 0, 35, 0, 3, 9, 7, 35, 40, 58, 142, 80, 119, 154, 163, 183, 177, 196, 234, 255, 250, 262, 252, 240, 216, 259, 202, 238, 207, 211, 194, 194, 174, 188, 163, 133, 133, 134, 117, 86, 91, 72, 72, 59, 44, 23, 0, 0, 0, 0, 0, 0, 0, 0, 0, 0, 0, 0, 0, 0, 0, 0, 0, 0, 0, 0, 0, 0, 0, 0, 0, 0, 0, 0, 0, 0, 0, 0, 0, 0, 0, 0, 0, 0, 0, 0, 0, 0, 0, 0, 0, 0, 0, 0, 0, 0, 0, 0, 0, 0, 0, 0, 0, 0, 0, 0
0, 0, 36, 0, 1, 6, 15, 23, 43, 54, 113, 90, 100, 140, 198, 193, 223, 190, 223, 202, 232, 245, 246, 220, 237, 211, 252, 223, 230, 208, 221, 176, 194, 173, 174, 152, 138, 105, 113, 111, 95, 74, 55, 60, 42, 24, 1, 0, 0, 0, 0, 0, 0, 0, 0, 0, 0, 0, 0, 0, 0, 0, 0, 0, 0, 0, 0, 0, 0, 0, 0, 0, 0, 0, 0, 0, 0, 0, 0, 0, 0, 0, 0, 0, 0, 0, 0, 0, 0, 0, 0, 0, 0, 0, 0, 0, 0, 0, 0, 0, 0, 0, 0, 0, 0, 0
0, 0, 37, 0, 4, 4, 13, 27, 49, 59, 125, 94, 118, 133, 183, 190, 216, 209, 239, 205, 249, 235, 244, 232, 234, 226, 242, 244, 206, 207, 232, 173, 167, 197, 161, 140, 117, 112, 140, 112, 94, 69, 73, 67, 29, 20, 0, 0, 0, 0, 0, 0, 0, 0, 0, 0, 0, 0, 0, 0, 0, 0, 0, 0, 0, 0, 0, 0, 0, 0, 0, 0, 0, 0, 0, 0, 0, 0, 0, 0, 0, 0, 0, 0, 0, 0, 0, 0, 0, 0, 0, 0, 0, 0, 0, 0, 0, 0, 0, 0, 0, 0, 0, 0, 0, 0
0, 0, 38, 4, 3, 7, 19, 25, 34, 56, 114, 103, 108, 146, 158, 195, 211, 240, 215, 220, 233, 226, 243, 226, 263, 211, 227, 197, 206, 216, 177, 209, 168, 152, 168, 136, 131, 122, 116, 95, 77, 78, 73, 51, 40, 24, 1, 0, 0, 0, 0, 0, 0, 0, 0, 0, 0, 0, 0, 0, 0, 0, 0, 0, 0, 0, 0, 0, 0, 0, 0, 0, 0, 0, 0, 0, 0, 0, 0, 0, 0, 0, 0, 0, 0, 0, 0, 0, 0, 0, 0, 0, 0, 0, 0, 0, 0, 0, 0, 0, 0, 0, 0, 0, 0, 0
0, 0, 39, 5, 5, 8, 14, 25, 34, 55, 132, 99, 114, 132, 159, 216, 170, 199, 204, 223, 284, 284, 253, 249, 258, 242, 237, 248, 181, 193, 188, 184, 178, 171, 139, 162, 144, 121, 108, 112, 82, 85, 64, 53, 42, 19, 1, 0, 0, 0, 0, 0, 0, 0, 0, 0, 0, 0, 0, 0, 0, 0, 0, 0, 0, 0, 0, 0, 0, 0, 0, 0, 0, 0, 0, 0, 0, 0, 0, 0, 0, 0, 0, 0, 0, 0, 0, 0, 0, 0, 0, 0, 0, 0, 0, 0, 0, 0, 0, 0, 0, 0, 0, 0, 0, 0
0, 0, 40, 2, 6, 1, 23, 28, 35, 58, 116, 82, 115, 122, 173, 189, 197, 210, 233, 232, 245, 236, 246, 237, 232, 233, 256, 240, 214, 184, 176, 187, 164, 180, 168, 146, 115, 128, 124, 113, 82, 80, 70, 43, 38, 20, 3, 0, 0, 0, 0, 0, 0, 0, 0, 0, 0, 0, 0, 0, 0, 0, 0, 0, 0, 0, 0, 0, 0, 0, 0, 0, 0, 0, 0, 0, 0, 0, 0, 0, 0, 0, 0, 0, 0, 0, 0, 0, 0, 0, 0, 0, 0, 0, 0, 0, 0, 0, 0, 0, 0, 0, 0, 0, 0, 0
0, 0, 41, 0, 0, 6, 17, 28, 42, 45, 101, 77, 107, 138, 147, 188, 187, 221, 192, 217, 225, 217, 227, 220, 232, 218, 222, 194, 196, 217, 163, 177, 160, 150, 143, 127, 134, 110, 143, 77, 94, 75, 50, 68, 33, 19, 1, 0, 0, 0, 0, 0, 0, 0, 0, 0, 0, 0, 0, 0, 0, 0, 0, 0, 0, 0, 0, 0, 0, 0, 0, 0, 0, 0, 0, 0, 0, 0, 0, 0, 0, 0, 0, 0, 0, 0, 0, 0, 0, 0, 0, 0, 0, 0, 0, 0, 0, 0, 0, 0, 0, 0, 0, 0, 0, 0
0, 0, 42, 1, 1, 7, 10, 20, 28, 39, 68, 78, 88, 108, 123, 155, 150, 180, 140, 170, 161, 190, 179, 148, 165, 183, 180, 166, 178, 134, 155, 143, 132, 115, 132, 120, 110, 97, 91, 67, 71, 54, 60, 41, 38, 14, 0, 0, 0, 0, 0, 0, 0, 0, 0, 0, 0, 0, 0, 0, 0, 0, 0, 0, 0, 0, 0, 0, 0, 0, 0, 0, 0, 0, 0, 0, 0, 0, 0, 0, 0, 0, 0, 0, 0, 0, 0, 0, 0, 0, 0, 0, 0, 0, 0, 0, 0, 0, 0, 0, 0, 0, 0, 0, 0, 0
0, 0, 43, 3, 1, 5, 9, 5, 29, 29, 53, 42, 63, 73, 104, 120, 104, 120, 122, 134, 130, 129, 149, 150, 130, 126, 138, 127, 140, 131, 106, 124, 98, 100, 116, 96, 87, 71, 56, 65, 33, 51, 42, 37, 22, 20, 0, 0, 0, 0, 0, 0, 0, 0, 0, 0, 0, 0, 0, 0, 0, 0, 0, 0, 0, 0, 0, 0, 0, 0, 0, 0, 0, 0, 0, 0, 0, 0, 0, 0, 0, 0, 0, 0, 0, 0, 0, 0, 0, 0, 0, 0, 0, 0, 0, 0, 0, 0, 0, 0, 0, 0, 0, 0, 0, 0
0, 0, 44, 1, 0, 0, 3, 8, 16, 28, 42, 40, 49, 52, 68, 84, 100, 111, 100, 113, 121, 103, 119, 116, 112, 96, 119, 117, 96, 100, 99, 90, 80, 78, 78, 57, 79, 71, 62, 60, 46, 33, 40, 28, 24, 7, 2, 0, 0, 0, 0, 0, 0, 0, 0, 0, 0, 0, 0, 0, 0, 0, 0, 0, 0, 0, 0, 0, 0, 0, 0, 0, 0, 0, 0, 0, 0, 0, 0, 0, 0, 0, 0, 0, 0, 0, 0, 0, 0, 0, 0, 0, 0, 0, 0, 0, 0, 0, 0, 0, 0, 0, 0, 0, 0, 0
0, 0, 45, 0, 0, 1, 4, 6, 11, 15, 32, 36, 25, 41, 40, 58, 33, 60, 75, 62, 68, 76, 68, 73, 90, 104, 79, 84, 102, 84, 83, 74, 83, 67, 53, 78, 51, 46, 58, 37, 30, 33, 19, 24, 21, 10, 0, 0, 0, 0, 0, 0, 0, 0, 0, 0, 0, 0, 0, 0, 0, 0, 0, 0, 0, 0, 0, 0, 0, 0, 0, 0, 0, 0, 0, 0, 0, 0, 0, 0, 0, 0, 0, 0, 0, 0, 0, 0, 0, 0, 0, 0, 0, 0, 0, 0, 0, 0, 0, 0, 0, 0, 0, 0, 0, 0
0, 0, 46, 0, 0, 0, 2, 7, 4, 11, 28, 20, 19, 23, 25, 34, 44, 53, 58, 65, 60, 54, 52, 59, 62, 51, 61, 61, 53, 53, 75, 54, 46, 55, 47, 45, 41, 29, 43, 35, 35, 20, 25, 20, 17, 5, 1, 0, 0, 0, 0, 0, 0, 0, 0, 0, 0, 0, 0, 0, 0, 0, 0, 0, 0, 0, 0, 0, 0, 0, 0, 0, 0, 0, 0, 0, 0, 0, 0, 0, 0, 0, 0, 0, 0, 0, 0, 0, 0, 0, 0, 0, 0, 0, 0, 0, 0, 0, 0, 0, 0, 0, 0, 0, 0, 0
0, 0, 47, 0, 0, 1, 3, 1, 4, 2, 18, 9, 14, 18, 12, 21, 32, 29, 32, 45, 37, 40, 43, 30, 38, 42, 51, 40, 48, 52, 51, 44, 39, 38, 38, 47, 30, 27, 22, 25, 27, 12, 15, 13, 9, 10, 0, 0, 0, 0, 0, 0, 0, 0, 0, 0, 0, 0, 0, 0, 0, 0, 0, 0, 0, 0, 0, 0, 0, 0, 0, 0, 0, 0, 0, 0, 0, 0, 0, 0, 0, 0, 0, 0, 0, 0, 0, 0, 0, 0, 0, 0, 0, 0, 0, 0, 0, 0, 0, 0, 0, 0, 0, 0, 0, 0
0, 0, 48, 0, 0, 0, 1, 0, 3, 2, 4, 5, 6, 10, 10, 12, 15, 12, 19, 18, 29, 30, 45, 31, 29, 29, 28, 42, 35, 16, 26, 36, 28, 35, 28, 30, 20, 27, 20, 37, 14, 7, 9, 13, 10, 5, 0, 0, 0, 0, 0, 0, 0, 0, 0, 0, 0, 0, 0, 0, 0, 0, 0, 0, 0, 0, 0, 0, 0, 0, 0, 0, 0, 0, 0, 0, 0, 0, 0, 0, 0, 0, 0, 0, 0, 0, 0, 0, 0, 0, 0, 0, 0, 0, 0, 0, 0, 0, 0, 0, 0, 0, 0, 0, 0, 0
0, 0, 49, 0, 0, 0, 0, 2, 0, 0, 5, 0, 3, 5, 3, 6, 7, 21, 14, 19, 23, 23, 24, 30, 22, 23, 33, 30, 27, 28, 28, 33, 29, 26, 19, 22, 24, 24, 26, 18, 18, 12, 12, 11, 14, 5, 0, 0, 0, 0, 0, 0, 0, 0, 0, 0, 0, 0, 0, 0, 0, 0, 0, 0, 0, 0, 0, 0, 0, 0, 0, 0, 0, 0, 0, 0, 0, 0, 0, 0, 0, 0, 0, 0, 0, 0, 0, 0, 0, 0, 0, 0, 0, 0, 0, 0, 0, 0, 0, 0, 0, 0, 0, 0, 0, 0
0, 0, 50, 0, 0, 0, 0, 0, 0, 0, 9, 1, 4, 7, 5, 6, 15, 16, 18, 23, 20, 23, 30, 29, 25, 26, 22, 24, 26, 33, 25, 40, 23, 23, 27, 29, 19, 17, 15, 17, 16, 18, 17, 16, 6, 3, 1, 0, 0, 0, 0, 0, 0, 0, 0, 0, 0, 0, 0, 0, 0, 0, 0, 0, 0, 0, 0, 0, 0, 0, 0, 0, 0, 0, 0, 0, 0, 0, 0, 0, 0, 0, 0, 0, 0, 0, 0, 0, 0, 0, 0, 0, 0, 0, 0, 0, 0, 0, 0, 0, 0, 0, 0, 0, 0, 0
0, 0, 51, 0, 0, 0, 0, 0, 1, 1, 3, 6, 5, 11, 5, 17, 14, 15, 17, 32, 24, 25, 32, 34, 41, 35, 20, 34, 48, 38, 31, 35, 27, 39, 25, 27, 25, 22, 26, 21, 16, 17, 20, 22, 8, 5, 0, 0, 0, 0, 0, 0, 0, 0, 0, 0, 0, 0, 0, 0, 0, 0, 0, 0, 0, 0, 0, 0, 0, 0, 0, 0, 0, 0, 0, 0, 0, 0, 0, 0, 0, 0, 0, 0, 0, 0, 0, 0, 0, 0, 0, 0, 0, 0, 0, 0, 0, 0, 0, 0, 0, 0, 0, 0, 0, 0
0, 0, 52, 0, 0, 0, 3, 2, 1, 4, 19, 4, 7, 14, 31, 28, 39, 31, 35, 42, 36, 39, 42, 45, 62, 48, 51, 56, 42, 31, 43, 45, 31, 49, 20, 52, 36, 25, 27, 17, 22, 17, 20, 13, 6, 5, 0, 0, 0, 0, 0, 0, 0, 0, 0, 0, 0, 0, 0, 0, 0, 0, 0, 0, 0, 0, 0, 0, 0, 0, 0, 0, 0, 0, 0, 0, 0, 0, 0, 0, 0, 0, 0, 0, 0, 0, 0, 0, 0, 0, 0, 0, 0, 0, 0, 0, 0, 0, 0, 0, 0, 0, 0, 0, 0, 0
0, 0, 53, 1, 0, 3, 2, 1, 5, 14, 17, 16, 26, 26, 26, 36, 39, 39, 46, 69, 54, 63, 54, 65, 64, 71, 76, 60, 39, 67, 64, 48, 53, 41, 55, 47, 42, 36, 33, 28, 29, 24, 18, 20, 19, 8, 0, 0, 0, 0, 0, 0, 0, 0, 0, 0, 0, 0, 0, 0, 0, 0, 0, 0, 0, 0, 0, 0, 0, 0, 0, 0, 0, 0, 0, 0, 0, 0, 0, 0, 0, 0, 0, 0, 0, 0, 0, 0, 0, 0, 0, 0, 0, 0, 0, 0, 0, 0, 0, 0, 0, 0, 0, 0, 0, 0
0, 0, 54, 0, 1, 0, 4, 3, 13, 22, 28, 30, 25, 39, 58, 52, 60, 66, 72, 71, 63, 74, 77, 102, 88, 70, 61, 77, 63, 64, 70, 50, 78, 63, 67, 54, 52, 54, 46, 36, 44, 29, 19, 21, 14, 6, 0, 0, 0, 0, 0, 0, 0, 0, 0, 0, 0, 0, 0, 0, 0, 0, 0, 0, 0, 0, 0, 0, 0, 0, 0, 0, 0, 0, 0, 0, 0, 0, 0, 0, 0, 0, 0, 0, 0, 0, 0, 0, 0, 0, 0, 0, 0, 0, 0, 0, 0, 0, 0, 0, 0, 0, 0, 0, 0, 0
0, 0, 55, 0, 3, 1, 5, 12, 17, 19, 46, 35, 44, 52, 66, 81, 75, 98, 104, 95, 98, 101, 122, 119, 93, 121, 107, 94, 91, 111, 103, 84, 73, 78, 73, 66, 51, 62, 62, 49, 40, 43, 32, 31, 27, 11, 0, 0, 0, 0, 0, 0, 0, 0, 0, 0, 0, 0, 0, 0, 0, 0, 0, 0, 0, 0, 0, 0, 0, 0, 0, 0, 0, 0, 0, 0, 0, 0, 0, 0, 0, 0, 0, 0, 0, 0, 0, 0, 0, 0, 0, 0, 0, 0, 0, 0, 0, 0, 0, 0, 0, 0, 0, 0, 0, 0
0, 0, 56, 0, 1, 5, 11, 17, 22, 28, 57, 71, 55, 69, 99, 122, 93, 119, 111, 153, 158, 140, 148, 145, 140, 145, 136, 156, 147, 119, 135, 104, 120, 107, 126, 105, 107, 75, 72, 66, 65, 48, 40, 30, 29, 14, 0, 0, 0, 0, 0, 0, 0, 0, 0, 0, 0, 0, 0, 0, 0, 0, 0, 0, 0, 0, 0, 0, 0, 0, 0, 0, 0, 0, 0, 0, 0, 0, 0, 0, 0, 0, 0, 0, 0, 0, 0, 0, 0, 0, 0, 0, 0, 0, 0, 0, 0, 0, 0, 0, 0, 0, 0, 0, 0, 0
0, 0, 57, 1, 0, 5, 15, 23, 31, 35, 71, 66, 83, 95, 128, 151, 145, 139, 144, 160, 156, 175, 180, 161, 183, 175, 157, 178, 162, 146, 143, 146, 138, 120, 124, 136, 106, 104, 79, 81, 70, 57, 45, 49, 24, 21, 0, 0, 0, 0, 0, 0, 0, 0, 0, 0, 0, 0, 0, 0, 0, 0, 0, 0, 0, 0, 0, 0, 0, 0, 0, 0, 0, 0, 0, 0, 0, 0, 0, 0, 0, 0, 0, 0, 0, 0, 0, 0, 0, 0, 0, 0, 0, 0, 0, 0, 0, 0, 0, 0, 0, 0, 0, 0, 0, 0
0, 0, 58, 0, 2, 8, 10, 29, 26, 50, 97, 107, 126, 126, 171, 172, 181, 207, 202, 222, 246, 228, 234, 224, 194, 229, 207, 207, 207, 194, 200, 172, 150, 142, 133, 152, 123, 120, 127, 105, 81, 72, 51, 42, 40, 5, 1, 0, 0, 0, 0, 0, 0, 0, 0, 0, 0, 0, 0, 0, 0, 0, 0, 0, 0, 0, 0, 0, 0, 0, 0, 0, 0, 0, 0, 0, 0, 0, 0, 0, 0, 0, 0, 0, 0, 0, 0, 0, 0, 0, 0, 0, 0, 0, 0, 0, 0, 0, 0, 0, 0, 0, 0, 0, 0, 0
0, 0, 59, 3, 5, 11, 14, 23, 49, 62, 122, 99, 119, 169, 172, 189, 220, 233, 208, 203, 263, 261, 237, 230, 237, 229, 213, 221, 191, 200, 207, 189, 178, 157, 187, 142, 146, 138, 121, 99, 87, 76, 65, 49, 37, 21, 1, 0, 0, 0, 0, 0, 0, 0, 0, 0, 0, 0, 0, 0, 0, 0, 0, 0, 0, 0, 0, 0, 0, 0, 0, 0, 0, 0, 0, 0, 0, 0, 0, 0, 0, 0, 0, 0, 0, 0, 0, 0, 0, 0, 0, 0, 0, 0, 0, 0, 0, 0, 0, 0, 0, 0, 0, 0, 0, 0
0, 0, 60, 2, 3, 6, 20, 12, 43, 45, 118, 85, 106, 161, 158, 203, 185, 228, 252, 206, 217, 262, 265, 248, 255, 243, 256, 224, 219, 192, 187, 178, 190, 163, 140, 137, 157, 147, 114, 103, 78, 98, 54, 51, 56, 19, 2, 0, 0, 0, 0, 0, 0, 0, 0, 0, 0, 0, 0, 0, 0, 0, 0, 0, 0, 0, 0, 0, 0, 0, 0, 0, 0, 0, 0, 0, 0, 0, 0, 0, 0, 0, 0, 0, 0, 0, 0, 0, 0, 0, 0, 0, 0, 0, 0, 0, 0, 0, 0, 0, 0, 0, 0, 0, 0, 0
0, 0, 61, 1, 3, 8, 12, 23, 34, 63, 111, 93, 103, 154, 152, 202, 179, 203, 221, 277, 233, 269, 251, 245, 219, 249, 237, 230, 209, 217, 172, 168, 191, 180, 145, 146, 106, 116, 104, 95, 84, 78, 62, 52, 32, 25, 2, 0, 0, 0, 0, 0, 0, 0, 0, 0, 0, 0, 0, 0, 0, 0, 0, 0, 0, 0, 0, 0, 0, 0, 0, 0, 0, 0, 0, 0, 0, 0, 0, 0, 0, 0, 0, 0, 0, 0, 0, 0, 0, 0, 0, 0, 0, 0, 0, 0, 0, 0, 0, 0, 0, 0, 0, 0, 0, 0
0, 0, 62, 0, 0, 8, 15, 31, 34, 66, 102, 102, 124, 150, 159, 207, 222, 206, 218, 269, 243, 261, 231, 233, 237, 233, 255, 207, 243, 182, 200, 191, 193, 158, 153, 160, 135, 138, 116, 107, 95, 74, 51, 44, 39, 26, 0, 0, 0, 0, 0, 0, 0, 0, 0, 0, 0, 0, 0, 0, 0, 0, 0, 0, 0, 0, 0, 0, 0, 0, 0, 0, 0, 0, 0, 0, 0, 0, 0, 0, 0, 0, 0, 0, 0, 0, 0, 0, 0, 0, 0, 0, 0, 0, 0, 0, 0, 0, 0, 0, 0, 0, 0, 0, 0, 0
0, 0, 63, 0, 3, 2, 17, 31, 45, 61, 120, 88, 119, 158, 167, 192, 184, 223, 238, 268, 260, 248, 264, 233, 244, 224, 242, 214, 218, 189, 177, 182, 191, 155, 181, 157, 128, 125, 92, 93, 81, 63, 43, 50, 29, 24, 3, 0, 0, 0, 0, 0, 0, 0, 0, 0, 0, 0, 0, 0, 0, 0, 0, 0, 0, 0, 0, 0, 0, 0, 0, 0, 0, 0, 0, 0, 0, 0, 0, 0, 0, 0, 0, 0, 0, 0, 0, 0, 0, 0, 0, 0, 0, 0, 0, 0, 0, 0, 0, 0, 0, 0, 0, 0, 0, 0
0, 0, 64, 2, 2, 10, 12, 24, 37, 68, 110, 86, 125, 159, 177, 227, 212, 207, 224, 234, 255, 238, 275, 261, 213, 253, 224, 203, 216, 225, 194, 181, 160, 173, 174, 155, 136, 123, 98, 102, 86, 76, 77, 51, 33, 24, 1, 0, 0, 0, 0, 0, 0, 0, 0, 0, 0, 0, 0, 0, 0, 0, 0, 0, 0, 0, 0, 0, 0, 0, 0, 0, 0, 0, 0, 0, 0, 0, 0, 0, 0, 0, 0, 0, 0, 0, 0, 0, 0, 0, 0, 0, 0, 0, 0, 0, 0, 0, 0, 0, 0, 0, 0, 0, 0, 0
0, 0, 65, 4, 2, 4, 16, 29, 41, 61, 108, 84, 134, 159, 169, 198, 215, 211, 231, 216, 240, 252, 230, 248, 204, 232, 218, 231, 225, 166, 188, 186, 192, 189, 148, 153, 132, 134, 115, 89, 91, 72, 70, 53, 39, 15, 3, 0, 0, 0, 0, 0, 0, 0, 0, 0, 0, 0, 0, 0, 0, 0, 0, 0, 0, 0, 0, 0, 0, 0, 0, 0, 0, 0, 0, 0, 0, 0, 0, 0, 0, 0, 0, 0, 0, 0, 0, 0, 0, 0, 0, 0, 0, 0, 0, 0, 0, 0, 0, 0, 0, 0, 0, 0, 0, 0
0, 0, 66, 2, 8, 12, 14, 23, 52, 56, 108, 86, 116, 144, 185, 212, 193, 217, 210, 238, 252, 261, 273, 239, 266, 232, 217, 219, 235, 229, 209, 188, 165, 182, 159, 161, 137, 137, 139, 111, 76, 70, 79, 48, 48, 14, 2, 0, 0, 0, 0, 0, 0, 0, 0, 0, 0, 0, 0, 0, 0, 0, 0, 0, 0, 0, 0, 0, 0, 0, 0, 0, 0, 0, 0, 0, 0, 0, 0, 0, 0, 0, 0, 0, 0, 0, 0, 0, 0, 0, 0, 0, 0, 0, 0, 0, 0, 0, 0, 0, 0, 0, 0, 0, 0, 0
0, 0, 67, 1, 2, 6, 21, 28, 38, 47, 117, 91, 101, 147, 187, 153, 183, 227, 227, 255, 207, 247, 264, 234, 246, 235, 243, 252, 231, 199, 201, 179, 170, 171, 141, 151, 137, 132, 118, 95, 87, 66, 65, 58, 43, 16, 1, 0, 0, 0, 0, 0, 0, 0, 0, 0, 0, 0, 0, 0, 0, 0, 0, 0, 0, 0, 0, 0, 0, 0, 0, 0, 0, 0, 0, 0, 0, 0, 0, 0, 0, 0, 0, 0, 0, 0, 0, 0, 0, 0, 0, 0, 0, 0, 0, 0, 0, 0, 0, 0, 0, 0, 0, 0, 0, 0
0, 0, 68, 2, 6, 9, 10, 28, 49, 56, 117, 86, 108, 143, 190, 200, 205, 225, 188, 234, 239, 238, 216, 232, 242, 275, 230, 230, 219, 206, 199, 191, 178, 182, 153, 143, 133, 116, 131, 87, 99, 91, 78, 60, 46, 17, 0, 0, 0, 0, 0, 0, 0, 0, 0, 0, 0, 0, 0, 0, 0, 0, 0, 0, 0, 0, 0, 0, 0, 0, 0, 0, 0, 0, 0, 0, 0, 0, 0, 0, 0, 0, 0, 0, 0, 0, 0, 0, 0, 0, 0, 0, 0, 0, 0, 0, 0, 0, 0, 0, 0, 0, 0, 0, 0, 0
0, 0, 69, 1, 4, 11, 19, 22, 47, 50, 146, 101, 126, 143, 173, 186, 237, 217, 225, 269, 240, 282, 268, 260, 229, 240, 216, 240, 217, 193, 198, 180, 195, 155, 183, 134, 139, 131, 115, 105, 87, 72, 74, 45, 42, 22, 0, 0, 0, 0, 0, 0, 0, 0, 0, 0, 0, 0, 0, 0, 0, 0, 0, 0, 0, 0, 0, 0, 0, 0, 0, 0, 0, 0, 0, 0, 0, 0, 0, 0, 0, 0, 0, 0, 0, 0, 0, 0, 0, 0, 0, 0, 0, 0, 0, 0, 0, 0, 0, 0, 0, 0, 0, 0, 0, 0
0, 0, 70, 0, 2, 8, 16, 25, 30, 58, 106, 95, 124, 143, 160, 220, 222, 208, 210, 250, 259, 241, 241, 225, 270, 258, 229, 203, 205, 209, 204, 188, 179, 168, 142, 119, 131, 104, 91, 121, 81, 83, 66, 53, 35, 26, 2, 0, 0, 0, 0, 0, 0, 0, 0, 0, 0, 0, 0, 0, 0, 0, 0, 0, 0, 0, 0, 0, 0, 0, 0, 0, 0, 0, 0, 0, 0, 0, 0, 0, 0, 0, 0, 0, 0, 0, 0, 0, 0, 0, 0, 0, 0, 0, 0, 0, 0, 0, 0, 0, 0, 0, 0, 0, 0, 0
0, 0, 71, 2, 2, 10, 19, 20, 33, 53, 126, 92, 87, 135, 161, 172, 208, 211, 241, 220, 311, 236, 247, 241, 251, 222, 248, 211, 232, 199, 226, 163, 178, 162, 160, 151, 135, 134, 109, 116, 93, 94, 69, 53, 39, 21, 3, 0, 0, 0, 0, 0, 0, 0, 0, 0, 0, 0, 0, 0, 0, 0, 0, 0, 0, 0, 0, 0, 0, 0, 0, 0, 0, 0, 0, 0, 0, 0, 0, 0, 0, 0, 0, 0, 0, 0, 0, 0, 0, 0, 0, 0, 0, 0, 0, 0, 0, 0, 0, 0, 0, 0, 0, 0, 0, 0
0, 0, 72, 2, 4, 6, 18, 23, 44, 52, 101, 89, 118, 106, 195, 195, 226, 208, 207, 221, 267, 257, 256, 243, 257, 243, 248, 208, 194, 177, 168, 196, 174, 156, 164, 133, 145, 114, 111, 104, 88, 68, 69, 57, 42, 20, 1, 0, 0, 0, 0, 0, 0, 0, 0, 0, 0, 0, 0, 0, 0, 0, 0, 0, 0, 0, 0, 0, 0, 0, 0, 0, 0, 0, 0, 0, 0, 0, 0, 0, 0, 0, 0, 0, 0, 0, 0, 0, 0, 0, 0, 0, 0, 0, 0, 0, 0, 0, 0, 0, 0, 0, 0, 0, 0, 0
0, 0, 73, 2, 4, 8, 18, 26, 39, 58, 107, 98, 115, 129, 168, 208, 202, 212, 226, 252, 227, 229, 272, 235, 220, 215, 256, 193, 195, 200, 183, 219, 175, 165, 164, 152, 136, 145, 87, 102, 92, 91, 63, 42, 47, 19, 0, 0, 0, 0, 0, 0, 0, 0, 0, 0, 0, 0, 0, 0, 0, 0, 0, 0, 0, 0, 0, 0, 0, 0, 0, 0, 0, 0, 0, 0, 0, 0, 0, 0, 0, 0, 0, 0, 0, 0, 0, 0, 0, 0, 0, 0, 0, 0, 0, 0, 0, 0, 0, 0, 0, 0, 0, 0, 0, 0
0, 0, 74, 1, 5, 11, 19, 22, 38, 49, 120, 86, 110, 144, 179, 157, 214, 213, 236, 242, 255, 258, 262, 287, 219, 235, 234, 219, 188, 212, 174, 167, 170, 178, 177, 148, 147, 130, 96, 116, 87, 80, 70, 54, 44, 20, 1, 0, 0, 0, 0, 0, 0, 0, 0, 0, 0, 0, 0, 0, 0, 0, 0, 0, 0, 0, 0, 0, 0, 0, 0, 0, 0, 0, 0, 0, 0, 0, 0, 0, 0, 0, 0, 0, 0, 0, 0, 0, 0, 0, 0, 0, 0, 0, 0, 0, 0, 0, 0, 0, 0, 0, 0, 0, 0, 0
0, 0, 75, 2, 1, 8, 16, 28, 42, 71, 114, 86, 87, 156, 152, 187, 213, 194, 214, 256, 241, 246, 265, 272, 253, 246, 224, 214, 224, 190, 215, 194, 171, 156, 143, 133, 131, 110, 108, 103, 92, 61, 74, 39, 35, 22, 0, 0, 0, 0, 0, 0, 0, 0, 0, 0, 0, 0, 0, 0, 0, 0, 0, 0, 0, 0, 0, 0, 0, 0, 0, 0, 0, 0, 0, 0, 0, 0, 0, 0, 0, 0, 0, 0, 0, 0, 0, 0, 0, 0, 0, 0, 0, 0, 0, 0, 0, 0, 0, 0, 0, 0, 0, 0, 0, 0
0, 0, 76, 2, 4, 5, 12, 23, 47, 53, 113, 103, 109, 117, 165, 214, 196, 189, 220, 233, 250, 231, 230, 247, 239, 256, 220, 216, 209, 192, 186, 186, 208, 170, 170, 140, 155, 128, 114, 90, 122, 67, 78, 56, 40, 22, 1, 0, 0, 0, 0, 0, 0, 0, 0, 0, 0, 0, 0, 0, 0, 0, 0, 0, 0, 0, 0, 0, 0, 0, 0, 0, 0, 0, 0, 0, 0, 0, 0, 0, 0, 0, 0, 0, 0, 0, 0, 0, 0, 0, 0, 0, 0, 0, 0, 0, 0, 0, 0, 0, 0, 0, 0, 0, 0, 0
0, 0, 77, 1, 1, 8, 16, 21, 45, 59, 130, 86, 118, 138, 198, 189, 210, 220, 243, 237, 291, 271, 235, 258, 243, 269, 246, 221, 204, 209, 207, 181, 176, 151, 132, 151, 141, 128, 103, 93, 94, 87, 72, 57, 40, 11, 0, 0, 0, 0, 0, 0, 0, 0, 0, 0, 0, 0, 0, 0, 0, 0, 0, 0, 0, 0, 0, 0, 0, 0, 0, 0, 0, 0, 0, 0, 0, 0, 0, 0, 0, 0, 0, 0, 0, 0, 0, 0, 0, 0, 0, 0, 0, 0, 0, 0, 0, 0, 0, 0, 0, 0, 0, 0, 0, 0
