# TOPAS Version: 3.1.p3
# Parameter File: REDLEN_small_phantom_mc_basic_2cm.txt
# Results for scorer PhantomDose
# Scored on surface: CdTeCrystal1/YPlusSurface
# X in 100 bins of 0.03332 cm
# Y in 1 bin  of 0.4 cm
# Z in 100 bins of 0.0375 cm
# SurfaceTrackCount : Sum   
# Binned by incident track energy in 100 bins of 0.00104 MeV from 0.016 MeV to 0.12 MeV
# First bin is underflow, next to last bin is overflow, last bin is for case of no incident track.
0, 0, 0, 0, 0, 0, 0, 0, 1, 1, 1, 0, 0, 0, 1, 2, 5, 3, 6, 3, 3, 4, 4, 1, 2, 6, 3, 1, 2, 3, 1, 3, 1, 2, 1, 1, 1, 2, 1, 4, 0, 1, 0, 0, 1, 0, 0, 0, 0, 0, 0, 0, 0, 0, 0, 0, 0, 0, 0, 0, 0, 0, 0, 0, 0, 0, 0, 0, 0, 0, 0, 0, 0, 0, 0, 0, 0, 0, 0, 0, 0, 0, 0, 0, 0, 0, 0, 0, 0, 0, 0, 0, 0, 0, 0, 0, 0, 0, 0, 0, 0, 0, 0, 0, 0, 0
0, 0, 1, 0, 0, 0, 0, 0, 0, 0, 0, 0, 1, 1, 3, 3, 1, 1, 3, 1, 0, 4, 1, 3, 3, 3, 0, 5, 2, 2, 1, 3, 1, 2, 2, 0, 2, 1, 2, 0, 1, 0, 0, 0, 0, 1, 0, 0, 0, 0, 0, 0, 0, 0, 0, 0, 0, 0, 0, 0, 0, 0, 0, 0, 0, 0, 0, 0, 0, 0, 0, 0, 0, 0, 0, 0, 0, 0, 0, 0, 0, 0, 0, 0, 0, 0, 0, 0, 0, 0, 0, 0, 0, 0, 0, 0, 0, 0, 0, 0, 0, 0, 0, 0, 0, 0
0, 0, 2, 0, 0, 0, 0, 0, 0, 0, 1, 1, 2, 1, 0, 1, 1, 2, 1, 2, 0, 4, 1, 2, 2, 3, 0, 1, 7, 0, 1, 4, 0, 0, 4, 0, 1, 1, 0, 1, 0, 0, 0, 1, 0, 0, 0, 0, 0, 0, 0, 0, 0, 0, 0, 0, 0, 0, 0, 0, 0, 0, 0, 0, 0, 0, 0, 0, 0, 0, 0, 0, 0, 0, 0, 0, 0, 0, 0, 0, 0, 0, 0, 0, 0, 0, 0, 0, 0, 0, 0, 0, 0, 0, 0, 0, 0, 0, 0, 0, 0, 0, 0, 0, 0, 0
0, 0, 3, 2, 0, 0, 0, 0, 1, 1, 2, 1, 1, 1, 1, 1, 2, 2, 2, 4, 5, 2, 1, 1, 2, 4, 5, 4, 0, 1, 1, 5, 2, 0, 4, 2, 1, 2, 2, 2, 0, 2, 2, 0, 0, 2, 0, 0, 0, 0, 0, 0, 0, 0, 0, 0, 0, 0, 0, 0, 0, 0, 0, 0, 0, 0, 0, 0, 0, 0, 0, 0, 0, 0, 0, 0, 0, 0, 0, 0, 0, 0, 0, 0, 0, 0, 0, 0, 0, 0, 0, 0, 0, 0, 0, 0, 0, 0, 0, 0, 0, 0, 0, 0, 0, 0
0, 0, 4, 0, 0, 0, 0, 0, 0, 0, 1, 0, 0, 2, 0, 2, 2, 2, 2, 3, 2, 1, 4, 0, 7, 2, 1, 3, 4, 3, 2, 3, 3, 2, 1, 1, 1, 0, 0, 1, 1, 2, 0, 0, 0, 0, 0, 0, 0, 0, 0, 0, 0, 0, 0, 0, 0, 0, 0, 0, 0, 0, 0, 0, 0, 0, 0, 0, 0, 0, 0, 0, 0, 0, 0, 0, 0, 0, 0, 0, 0, 0, 0, 0, 0, 0, 0, 0, 0, 0, 0, 0, 0, 0, 0, 0, 0, 0, 0, 0, 0, 0, 0, 0, 0, 0
0, 0, 5, 3, 1, 1, 10, 15, 16, 25, 55, 41, 51, 65, 75, 68, 82, 75, 113, 97, 99, 95, 107, 118, 105, 96, 88, 105, 98, 79, 91, 87, 74, 73, 51, 71, 50, 62, 52, 47, 39, 35, 31, 23, 22, 5, 0, 0, 0, 0, 0, 0, 0, 0, 0, 0, 0, 0, 0, 0, 0, 0, 0, 0, 0, 0, 0, 0, 0, 0, 0, 0, 0, 0, 0, 0, 0, 0, 0, 0, 0, 0, 0, 0, 0, 0, 0, 0, 0, 0, 0, 0, 0, 0, 0, 0, 0, 0, 0, 0, 0, 0, 0, 0, 0, 0
0, 0, 6, 4, 2, 8, 16, 24, 39, 58, 134, 83, 119, 151, 213, 184, 233, 210, 236, 214, 251, 258, 230, 281, 256, 220, 217, 214, 230, 228, 187, 209, 172, 185, 197, 130, 131, 123, 105, 120, 94, 79, 57, 48, 37, 16, 0, 0, 0, 0, 0, 0, 0, 0, 0, 0, 0, 0, 0, 0, 0, 0, 0, 0, 0, 0, 0, 0, 0, 0, 0, 0, 0, 0, 0, 0, 0, 0, 0, 0, 0, 0, 0, 0, 0, 0, 0, 0, 0, 0, 0, 0, 0, 0, 0, 0, 0, 0, 0, 0, 0, 0, 0, 0, 0, 0
0, 0, 7, 1, 4, 13, 18, 22, 40, 46, 123, 92, 115, 134, 170, 186, 187, 220, 224, 238, 257, 251, 279, 249, 260, 260, 246, 210, 221, 202, 184, 193, 163, 138, 137, 156, 148, 139, 127, 96, 104, 73, 82, 63, 31, 21, 7, 0, 0, 0, 0, 0, 0, 0, 0, 0, 0, 0, 0, 0, 0, 0, 0, 0, 0, 0, 0, 0, 0, 0, 0, 0, 0, 0, 0, 0, 0, 0, 0, 0, 0, 0, 0, 0, 0, 0, 0, 0, 0, 0, 0, 0, 0, 0, 0, 0, 0, 0, 0, 0, 0, 0, 0, 0, 0, 0
0, 0, 8, 7, 8, 7, 16, 26, 34, 56, 122, 91, 112, 146, 189, 176, 213, 227, 230, 244, 250, 273, 242, 299, 218, 257, 231, 214, 206, 220, 184, 201, 161, 174, 179, 128, 117, 133, 130, 95, 83, 85, 70, 50, 54, 14, 0, 0, 0, 0, 0, 0, 0, 0, 0, 0, 0, 0, 0, 0, 0, 0, 0, 0, 0, 0, 0, 0, 0, 0, 0, 0, 0, 0, 0, 0, 0, 0, 0, 0, 0, 0, 0, 0, 0, 0, 0, 0, 0, 0, 0, 0, 0, 0, 0, 0, 0, 0, 0, 0, 0, 0, 0, 0, 0, 0
0, 0, 9, 2, 3, 15, 15, 26, 33, 53, 143, 91, 104, 157, 180, 193, 204, 190, 241, 232, 254, 226, 252, 245, 251, 240, 237, 226, 217, 192, 203, 208, 191, 159, 146, 168, 148, 125, 111, 115, 92, 65, 56, 51, 39, 22, 2, 0, 0, 0, 0, 0, 0, 0, 0, 0, 0, 0, 0, 0, 0, 0, 0, 0, 0, 0, 0, 0, 0, 0, 0, 0, 0, 0, 0, 0, 0, 0, 0, 0, 0, 0, 0, 0, 0, 0, 0, 0, 0, 0, 0, 0, 0, 0, 0, 0, 0, 0, 0, 0, 0, 0, 0, 0, 0, 0
0, 0, 10, 1, 6, 14, 17, 27, 43, 46, 103, 83, 112, 154, 166, 188, 215, 201, 252, 243, 263, 248, 255, 231, 244, 242, 201, 231, 209, 226, 179, 172, 186, 162, 160, 144, 143, 125, 114, 112, 76, 62, 63, 55, 41, 23, 3, 0, 0, 0, 0, 0, 0, 0, 0, 0, 0, 0, 0, 0, 0, 0, 0, 0, 0, 0, 0, 0, 0, 0, 0, 0, 0, 0, 0, 0, 0, 0, 0, 0, 0, 0, 0, 0, 0, 0, 0, 0, 0, 0, 0, 0, 0, 0, 0, 0, 0, 0, 0, 0, 0, 0, 0, 0, 0, 0
0, 0, 11, 5, 6, 8, 20, 27, 38, 54, 118, 75, 136, 133, 175, 166, 180, 212, 264, 211, 247, 209, 241, 260, 229, 282, 263, 218, 178, 232, 196, 179, 168, 162, 161, 147, 131, 157, 103, 89, 88, 84, 66, 55, 49, 16, 4, 0, 0, 0, 0, 0, 0, 0, 0, 0, 0, 0, 0, 0, 0, 0, 0, 0, 0, 0, 0, 0, 0, 0, 0, 0, 0, 0, 0, 0, 0, 0, 0, 0, 0, 0, 0, 0, 0, 0, 0, 0, 0, 0, 0, 0, 0, 0, 0, 0, 0, 0, 0, 0, 0, 0, 0, 0, 0, 0
0, 0, 12, 2, 3, 7, 12, 38, 35, 54, 113, 97, 118, 153, 163, 187, 230, 193, 230, 234, 233, 240, 224, 274, 226, 256, 229, 211, 217, 215, 205, 192, 186, 167, 156, 143, 143, 120, 124, 96, 83, 90, 68, 49, 38, 26, 2, 0, 0, 0, 0, 0, 0, 0, 0, 0, 0, 0, 0, 0, 0, 0, 0, 0, 0, 0, 0, 0, 0, 0, 0, 0, 0, 0, 0, 0, 0, 0, 0, 0, 0, 0, 0, 0, 0, 0, 0, 0, 0, 0, 0, 0, 0, 0, 0, 0, 0, 0, 0, 0, 0, 0, 0, 0, 0, 0
0, 0, 13, 6, 4, 14, 15, 20, 39, 45, 121, 99, 103, 143, 159, 179, 191, 249, 242, 215, 227, 227, 247, 252, 213, 267, 230, 227, 220, 210, 195, 175, 161, 178, 172, 140, 146, 118, 87, 115, 90, 85, 68, 66, 39, 22, 0, 0, 0, 0, 0, 0, 0, 0, 0, 0, 0, 0, 0, 0, 0, 0, 0, 0, 0, 0, 0, 0, 0, 0, 0, 0, 0, 0, 0, 0, 0, 0, 0, 0, 0, 0, 0, 0, 0, 0, 0, 0, 0, 0, 0, 0, 0, 0, 0, 0, 0, 0, 0, 0, 0, 0, 0, 0, 0, 0
0, 0, 14, 4, 5, 3, 14, 29, 35, 68, 123, 107, 110, 127, 162, 197, 212, 204, 244, 202, 261, 245, 260, 250, 227, 227, 241, 220, 229, 195, 214, 188, 191, 202, 149, 171, 146, 130, 112, 110, 99, 76, 64, 44, 52, 21, 1, 0, 0, 0, 0, 0, 0, 0, 0, 0, 0, 0, 0, 0, 0, 0, 0, 0, 0, 0, 0, 0, 0, 0, 0, 0, 0, 0, 0, 0, 0, 0, 0, 0, 0, 0, 0, 0, 0, 0, 0, 0, 0, 0, 0, 0, 0, 0, 0, 0, 0, 0, 0, 0, 0, 0, 0, 0, 0, 0
0, 0, 15, 3, 2, 13, 5, 30, 34, 45, 126, 109, 135, 157, 158, 206, 222, 205, 211, 234, 260, 252, 251, 264, 219, 239, 230, 235, 196, 208, 175, 188, 200, 162, 168, 141, 137, 127, 89, 95, 94, 71, 65, 51, 40, 10, 1, 0, 0, 0, 0, 0, 0, 0, 0, 0, 0, 0, 0, 0, 0, 0, 0, 0, 0, 0, 0, 0, 0, 0, 0, 0, 0, 0, 0, 0, 0, 0, 0, 0, 0, 0, 0, 0, 0, 0, 0, 0, 0, 0, 0, 0, 0, 0, 0, 0, 0, 0, 0, 0, 0, 0, 0, 0, 0, 0
0, 0, 16, 1, 0, 8, 19, 23, 35, 64, 107, 91, 129, 143, 170, 196, 210, 184, 229, 229, 247, 229, 239, 213, 243, 228, 263, 199, 212, 192, 215, 195, 176, 187, 165, 142, 119, 117, 132, 120, 70, 71, 61, 60, 33, 16, 2, 0, 0, 0, 0, 0, 0, 0, 0, 0, 0, 0, 0, 0, 0, 0, 0, 0, 0, 0, 0, 0, 0, 0, 0, 0, 0, 0, 0, 0, 0, 0, 0, 0, 0, 0, 0, 0, 0, 0, 0, 0, 0, 0, 0, 0, 0, 0, 0, 0, 0, 0, 0, 0, 0, 0, 0, 0, 0, 0
0, 0, 17, 6, 4, 8, 15, 27, 42, 72, 122, 86, 94, 157, 176, 195, 191, 256, 245, 235, 252, 233, 225, 241, 238, 228, 244, 217, 244, 214, 206, 208, 170, 183, 165, 167, 140, 117, 124, 106, 105, 63, 58, 63, 41, 19, 1, 0, 0, 0, 0, 0, 0, 0, 0, 0, 0, 0, 0, 0, 0, 0, 0, 0, 0, 0, 0, 0, 0, 0, 0, 0, 0, 0, 0, 0, 0, 0, 0, 0, 0, 0, 0, 0, 0, 0, 0, 0, 0, 0, 0, 0, 0, 0, 0, 0, 0, 0, 0, 0, 0, 0, 0, 0, 0, 0
0, 0, 18, 2, 3, 4, 7, 16, 41, 57, 114, 91, 124, 133, 197, 207, 215, 204, 212, 238, 238, 230, 274, 262, 233, 230, 216, 230, 239, 198, 212, 166, 169, 171, 152, 143, 136, 135, 126, 97, 74, 61, 80, 48, 30, 23, 0, 0, 0, 0, 0, 0, 0, 0, 0, 0, 0, 0, 0, 0, 0, 0, 0, 0, 0, 0, 0, 0, 0, 0, 0, 0, 0, 0, 0, 0, 0, 0, 0, 0, 0, 0, 0, 0, 0, 0, 0, 0, 0, 0, 0, 0, 0, 0, 0, 0, 0, 0, 0, 0, 0, 0, 0, 0, 0, 0
0, 0, 19, 5, 4, 7, 10, 17, 45, 57, 108, 91, 128, 153, 180, 219, 214, 217, 249, 257, 217, 252, 236, 247, 247, 255, 214, 205, 217, 206, 201, 167, 190, 194, 196, 167, 160, 133, 120, 92, 99, 83, 70, 53, 28, 31, 2, 0, 0, 0, 0, 0, 0, 0, 0, 0, 0, 0, 0, 0, 0, 0, 0, 0, 0, 0, 0, 0, 0, 0, 0, 0, 0, 0, 0, 0, 0, 0, 0, 0, 0, 0, 0, 0, 0, 0, 0, 0, 0, 0, 0, 0, 0, 0, 0, 0, 0, 0, 0, 0, 0, 0, 0, 0, 0, 0
0, 0, 20, 3, 1, 9, 17, 29, 43, 72, 112, 105, 129, 148, 157, 200, 172, 218, 231, 255, 260, 210, 240, 229, 240, 245, 215, 217, 234, 191, 193, 185, 172, 163, 139, 141, 136, 127, 107, 107, 113, 69, 60, 56, 43, 14, 1, 0, 0, 0, 0, 0, 0, 0, 0, 0, 0, 0, 0, 0, 0, 0, 0, 0, 0, 0, 0, 0, 0, 0, 0, 0, 0, 0, 0, 0, 0, 0, 0, 0, 0, 0, 0, 0, 0, 0, 0, 0, 0, 0, 0, 0, 0, 0, 0, 0, 0, 0, 0, 0, 0, 0, 0, 0, 0, 0
0, 0, 21, 0, 2, 9, 15, 18, 30, 55, 115, 93, 124, 157, 158, 212, 198, 187, 241, 244, 225, 223, 240, 246, 269, 233, 210, 223, 246, 214, 191, 194, 194, 163, 170, 167, 120, 102, 106, 93, 111, 73, 74, 57, 46, 24, 0, 0, 0, 0, 0, 0, 0, 0, 0, 0, 0, 0, 0, 0, 0, 0, 0, 0, 0, 0, 0, 0, 0, 0, 0, 0, 0, 0, 0, 0, 0, 0, 0, 0, 0, 0, 0, 0, 0, 0, 0, 0, 0, 0, 0, 0, 0, 0, 0, 0, 0, 0, 0, 0, 0, 0, 0, 0, 0, 0
0, 0, 22, 3, 5, 14, 13, 20, 41, 57, 108, 100, 121, 134, 169, 194, 201, 185, 218, 281, 224, 258, 228, 240, 242, 271, 239, 229, 227, 207, 218, 174, 171, 173, 154, 167, 126, 133, 118, 102, 90, 78, 72, 48, 42, 23, 0, 0, 0, 0, 0, 0, 0, 0, 0, 0, 0, 0, 0, 0, 0, 0, 0, 0, 0, 0, 0, 0, 0, 0, 0, 0, 0, 0, 0, 0, 0, 0, 0, 0, 0, 0, 0, 0, 0, 0, 0, 0, 0, 0, 0, 0, 0, 0, 0, 0, 0, 0, 0, 0, 0, 0, 0, 0, 0, 0
0, 0, 23, 2, 2, 18, 17, 31, 50, 54, 108, 89, 101, 148, 171, 195, 193, 210, 211, 220, 236, 263, 250, 253, 251, 245, 210, 268, 199, 237, 194, 185, 181, 161, 137, 127, 132, 132, 120, 90, 100, 107, 67, 60, 37, 19, 1, 0, 0, 0, 0, 0, 0, 0, 0, 0, 0, 0, 0, 0, 0, 0, 0, 0, 0, 0, 0, 0, 0, 0, 0, 0, 0, 0, 0, 0, 0, 0, 0, 0, 0, 0, 0, 0, 0, 0, 0, 0, 0, 0, 0, 0, 0, 0, 0, 0, 0, 0, 0, 0, 0, 0, 0, 0, 0, 0
0, 0, 24, 2, 3, 12, 20, 34, 50, 51, 121, 102, 129, 137, 194, 209, 244, 222, 208, 227, 266, 279, 235, 210, 260, 221, 243, 217, 213, 222, 189, 184, 163, 169, 149, 143, 129, 137, 108, 76, 88, 74, 76, 52, 31, 18, 2, 0, 0, 0, 0, 0, 0, 0, 0, 0, 0, 0, 0, 0, 0, 0, 0, 0, 0, 0, 0, 0, 0, 0, 0, 0, 0, 0, 0, 0, 0, 0, 0, 0, 0, 0, 0, 0, 0, 0, 0, 0, 0, 0, 0, 0, 0, 0, 0, 0, 0, 0, 0, 0, 0, 0, 0, 0, 0, 0
0, 0, 25, 3, 1, 12, 17, 23, 42, 65, 121, 93, 122, 153, 177, 183, 234, 212, 225, 245, 245, 238, 251, 259, 296, 228, 219, 234, 212, 210, 188, 187, 204, 206, 143, 132, 171, 112, 116, 91, 85, 85, 64, 61, 45, 20, 1, 0, 0, 0, 0, 0, 0, 0, 0, 0, 0, 0, 0, 0, 0, 0, 0, 0, 0, 0, 0, 0, 0, 0, 0, 0, 0, 0, 0, 0, 0, 0, 0, 0, 0, 0, 0, 0, 0, 0, 0, 0, 0, 0, 0, 0, 0, 0, 0, 0, 0, 0, 0, 0, 0, 0, 0, 0, 0, 0
0, 0, 26, 1, 1, 5, 12, 34, 28, 36, 106, 107, 109, 152, 180, 183, 226, 219, 209, 246, 231, 273, 221, 231, 255, 241, 247, 221, 211, 209, 178, 211, 178, 186, 143, 143, 150, 141, 99, 103, 91, 87, 66, 50, 35, 21, 1, 0, 0, 0, 0, 0, 0, 0, 0, 0, 0, 0, 0, 0, 0, 0, 0, 0, 0, 0, 0, 0, 0, 0, 0, 0, 0, 0, 0, 0, 0, 0, 0, 0, 0, 0, 0, 0, 0, 0, 0, 0, 0, 0, 0, 0, 0, 0, 0, 0, 0, 0, 0, 0, 0, 0, 0, 0, 0, 0
0, 0, 27, 2, 1, 7, 10, 22, 48, 57, 107, 92, 103, 132, 175, 210, 230, 200, 249, 270, 229, 235, 271, 231, 234, 278, 217, 219, 229, 165, 183, 173, 192, 190, 152, 151, 132, 130, 104, 104, 80, 70, 65, 47, 36, 21, 2, 0, 0, 0, 0, 0, 0, 0, 0, 0, 0, 0, 0, 0, 0, 0, 0, 0, 0, 0, 0, 0, 0, 0, 0, 0, 0, 0, 0, 0, 0, 0, 0, 0, 0, 0, 0, 0, 0, 0, 0, 0, 0, 0, 0, 0, 0, 0, 0, 0, 0, 0, 0, 0, 0, 0, 0, 0, 0, 0
0, 0, 28, 4, 1, 5, 14, 22, 42, 52, 117, 89, 111, 159, 154, 176, 210, 203, 259, 233, 268, 266, 264, 230, 234, 282, 221, 213, 232, 186, 179, 173, 167, 143, 142, 151, 138, 128, 95, 106, 102, 66, 67, 43, 50, 21, 4, 0, 0, 0, 0, 0, 0, 0, 0, 0, 0, 0, 0, 0, 0, 0, 0, 0, 0, 0, 0, 0, 0, 0, 0, 0, 0, 0, 0, 0, 0, 0, 0, 0, 0, 0, 0, 0, 0, 0, 0, 0, 0, 0, 0, 0, 0, 0, 0, 0, 0, 0, 0, 0, 0, 0, 0, 0, 0, 0
0, 0, 29, 1, 4, 15, 13, 15, 38, 45, 120, 92, 119, 133, 160, 198, 181, 217, 277, 235, 247, 265, 246, 258, 231, 242, 242, 208, 200, 213, 190, 186, 175, 176, 154, 131, 139, 128, 128, 110, 91, 82, 70, 38, 37, 22, 3, 0, 0, 0, 0, 0, 0, 0, 0, 0, 0, 0, 0, 0, 0, 0, 0, 0, 0, 0, 0, 0, 0, 0, 0, 0, 0, 0, 0, 0, 0, 0, 0, 0, 0, 0, 0, 0, 0, 0, 0, 0, 0, 0, 0, 0, 0, 0, 0, 0, 0, 0, 0, 0, 0, 0, 0, 0, 0, 0
0, 0, 30, 2, 5, 6, 12, 23, 31, 52, 126, 74, 126, 151, 157, 189, 207, 193, 215, 244, 277, 253, 267, 248, 250, 240, 232, 211, 237, 220, 228, 212, 190, 188, 167, 149, 131, 133, 110, 103, 93, 77, 63, 46, 38, 19, 2, 0, 0, 0, 0, 0, 0, 0, 0, 0, 0, 0, 0, 0, 0, 0, 0, 0, 0, 0, 0, 0, 0, 0, 0, 0, 0, 0, 0, 0, 0, 0, 0, 0, 0, 0, 0, 0, 0, 0, 0, 0, 0, 0, 0, 0, 0, 0, 0, 0, 0, 0, 0, 0, 0, 0, 0, 0, 0, 0
0, 0, 31, 1, 4, 8, 14, 30, 46, 59, 104, 104, 104, 132, 160, 197, 189, 204, 233, 212, 239, 303, 242, 222, 218, 208, 211, 235, 172, 193, 182, 187, 208, 173, 166, 145, 148, 132, 113, 114, 91, 72, 84, 45, 49, 18, 0, 0, 0, 0, 0, 0, 0, 0, 0, 0, 0, 0, 0, 0, 0, 0, 0, 0, 0, 0, 0, 0, 0, 0, 0, 0, 0, 0, 0, 0, 0, 0, 0, 0, 0, 0, 0, 0, 0, 0, 0, 0, 0, 0, 0, 0, 0, 0, 0, 0, 0, 0, 0, 0, 0, 0, 0, 0, 0, 0
0, 0, 32, 5, 7, 13, 16, 34, 46, 55, 98, 102, 128, 142, 161, 187, 181, 221, 251, 230, 278, 259, 268, 245, 244, 240, 206, 212, 214, 213, 207, 209, 172, 165, 164, 156, 154, 132, 113, 100, 82, 73, 62, 49, 53, 24, 0, 0, 0, 0, 0, 0, 0, 0, 0, 0, 0, 0, 0, 0, 0, 0, 0, 0, 0, 0, 0, 0, 0, 0, 0, 0, 0, 0, 0, 0, 0, 0, 0, 0, 0, 0, 0, 0, 0, 0, 0, 0, 0, 0, 0, 0, 0, 0, 0, 0, 0, 0, 0, 0, 0, 0, 0, 0, 0, 0
0, 0, 33, 1, 5, 7, 19, 23, 49, 56, 106, 112, 106, 137, 170, 209, 203, 232, 195, 248, 267, 250, 260, 275, 246, 244, 226, 216, 225, 186, 209, 194, 168, 184, 157, 128, 151, 125, 122, 104, 89, 74, 59, 53, 41, 24, 2, 0, 0, 0, 0, 0, 0, 0, 0, 0, 0, 0, 0, 0, 0, 0, 0, 0, 0, 0, 0, 0, 0, 0, 0, 0, 0, 0, 0, 0, 0, 0, 0, 0, 0, 0, 0, 0, 0, 0, 0, 0, 0, 0, 0, 0, 0, 0, 0, 0, 0, 0, 0, 0, 0, 0, 0, 0, 0, 0
0, 0, 34, 3, 1, 4, 12, 26, 44, 72, 121, 102, 108, 151, 163, 194, 223, 256, 218, 252, 237, 273, 273, 252, 260, 219, 255, 227, 242, 223, 176, 184, 192, 149, 171, 138, 117, 127, 130, 118, 102, 76, 45, 67, 30, 16, 0, 0, 0, 0, 0, 0, 0, 0, 0, 0, 0, 0, 0, 0, 0, 0, 0, 0, 0, 0, 0, 0, 0, 0, 0, 0, 0, 0, 0, 0, 0, 0, 0, 0, 0, 0, 0, 0, 0, 0, 0, 0, 0, 0, 0, 0, 0, 0, 0, 0, 0, 0, 0, 0, 0, 0, 0, 0, 0, 0
0, 0, 35, 3, 2, 13, 10, 25, 37, 52, 111, 117, 111, 147, 166, 180, 209, 226, 242, 264, 259, 280, 317, 251, 237, 251, 227, 234, 243, 218, 193, 191, 193, 181, 152, 149, 130, 152, 104, 94, 88, 90, 76, 64, 34, 24, 0, 0, 0, 0, 0, 0, 0, 0, 0, 0, 0, 0, 0, 0, 0, 0, 0, 0, 0, 0, 0, 0, 0, 0, 0, 0, 0, 0, 0, 0, 0, 0, 0, 0, 0, 0, 0, 0, 0, 0, 0, 0, 0, 0, 0, 0, 0, 0, 0, 0, 0, 0, 0, 0, 0, 0, 0, 0, 0, 0
0, 0, 36, 1, 3, 8, 14, 29, 55, 50, 112, 105, 125, 146, 167, 204, 210, 207, 229, 249, 257, 242, 244, 239, 242, 231, 209, 241, 217, 216, 198, 176, 179, 146, 146, 152, 124, 103, 124, 93, 101, 75, 90, 41, 29, 14, 1, 0, 0, 0, 0, 0, 0, 0, 0, 0, 0, 0, 0, 0, 0, 0, 0, 0, 0, 0, 0, 0, 0, 0, 0, 0, 0, 0, 0, 0, 0, 0, 0, 0, 0, 0, 0, 0, 0, 0, 0, 0, 0, 0, 0, 0, 0, 0, 0, 0, 0, 0, 0, 0, 0, 0, 0, 0, 0, 0
0, 0, 37, 2, 10, 1, 16, 28, 38, 70, 127, 87, 107, 146, 168, 167, 214, 231, 226, 248, 246, 248, 246, 221, 235, 242, 237, 211, 217, 221, 222, 213, 192, 148, 150, 150, 145, 131, 90, 106, 93, 75, 62, 56, 47, 23, 0, 0, 0, 0, 0, 0, 0, 0, 0, 0, 0, 0, 0, 0, 0, 0, 0, 0, 0, 0, 0, 0, 0, 0, 0, 0, 0, 0, 0, 0, 0, 0, 0, 0, 0, 0, 0, 0, 0, 0, 0, 0, 0, 0, 0, 0, 0, 0, 0, 0, 0, 0, 0, 0, 0, 0, 0, 0, 0, 0
0, 0, 38, 2, 4, 10, 19, 18, 34, 49, 129, 101, 113, 134, 163, 208, 217, 217, 259, 267, 259, 257, 218, 245, 266, 209, 228, 201, 223, 201, 182, 191, 172, 153, 153, 159, 146, 137, 126, 88, 95, 79, 69, 56, 47, 18, 1, 0, 0, 0, 0, 0, 0, 0, 0, 0, 0, 0, 0, 0, 0, 0, 0, 0, 0, 0, 0, 0, 0, 0, 0, 0, 0, 0, 0, 0, 0, 0, 0, 0, 0, 0, 0, 0, 0, 0, 0, 0, 0, 0, 0, 0, 0, 0, 0, 0, 0, 0, 0, 0, 0, 0, 0, 0, 0, 0
0, 0, 39, 1, 2, 4, 13, 20, 45, 59, 128, 101, 121, 151, 178, 238, 232, 189, 232, 247, 245, 249, 240, 250, 230, 249, 225, 245, 211, 218, 204, 178, 196, 181, 144, 146, 135, 139, 134, 115, 84, 70, 67, 65, 43, 18, 1, 0, 0, 0, 0, 0, 0, 0, 0, 0, 0, 0, 0, 0, 0, 0, 0, 0, 0, 0, 0, 0, 0, 0, 0, 0, 0, 0, 0, 0, 0, 0, 0, 0, 0, 0, 0, 0, 0, 0, 0, 0, 0, 0, 0, 0, 0, 0, 0, 0, 0, 0, 0, 0, 0, 0, 0, 0, 0, 0
0, 0, 40, 2, 4, 9, 17, 25, 37, 55, 100, 106, 126, 147, 158, 207, 172, 187, 227, 238, 258, 267, 248, 264, 229, 222, 248, 218, 222, 199, 202, 181, 173, 150, 185, 143, 139, 148, 102, 110, 82, 72, 58, 59, 40, 18, 5, 0, 0, 0, 0, 0, 0, 0, 0, 0, 0, 0, 0, 0, 0, 0, 0, 0, 0, 0, 0, 0, 0, 0, 0, 0, 0, 0, 0, 0, 0, 0, 0, 0, 0, 0, 0, 0, 0, 0, 0, 0, 0, 0, 0, 0, 0, 0, 0, 0, 0, 0, 0, 0, 0, 0, 0, 0, 0, 0
0, 0, 41, 1, 3, 7, 14, 20, 41, 67, 105, 97, 103, 146, 163, 150, 181, 212, 242, 222, 271, 225, 224, 216, 235, 251, 223, 195, 221, 171, 163, 199, 163, 150, 159, 132, 130, 111, 112, 95, 88, 68, 61, 55, 23, 24, 0, 0, 0, 0, 0, 0, 0, 0, 0, 0, 0, 0, 0, 0, 0, 0, 0, 0, 0, 0, 0, 0, 0, 0, 0, 0, 0, 0, 0, 0, 0, 0, 0, 0, 0, 0, 0, 0, 0, 0, 0, 0, 0, 0, 0, 0, 0, 0, 0, 0, 0, 0, 0, 0, 0, 0, 0, 0, 0, 0
0, 0, 42, 1, 5, 7, 9, 21, 29, 54, 77, 59, 106, 115, 128, 134, 161, 144, 183, 201, 162, 230, 181, 173, 214, 178, 205, 191, 180, 201, 171, 145, 138, 154, 122, 146, 113, 118, 87, 91, 80, 58, 48, 50, 28, 16, 2, 0, 0, 0, 0, 0, 0, 0, 0, 0, 0, 0, 0, 0, 0, 0, 0, 0, 0, 0, 0, 0, 0, 0, 0, 0, 0, 0, 0, 0, 0, 0, 0, 0, 0, 0, 0, 0, 0, 0, 0, 0, 0, 0, 0, 0, 0, 0, 0, 0, 0, 0, 0, 0, 0, 0, 0, 0, 0, 0
0, 0, 43, 1, 2, 5, 6, 20, 24, 34, 69, 62, 82, 87, 97, 122, 116, 148, 144, 147, 170, 158, 174, 162, 172, 173, 162, 161, 159, 133, 123, 166, 126, 112, 91, 101, 109, 117, 87, 91, 65, 53, 56, 41, 23, 20, 0, 0, 0, 0, 0, 0, 0, 0, 0, 0, 0, 0, 0, 0, 0, 0, 0, 0, 0, 0, 0, 0, 0, 0, 0, 0, 0, 0, 0, 0, 0, 0, 0, 0, 0, 0, 0, 0, 0, 0, 0, 0, 0, 0, 0, 0, 0, 0, 0, 0, 0, 0, 0, 0, 0, 0, 0, 0, 0, 0
0, 0, 44, 0, 2, 3, 1, 12, 18, 21, 64, 43, 63, 63, 101, 102, 99, 118, 131, 158, 114, 128, 149, 157, 119, 156, 144, 133, 133, 109, 118, 124, 118, 113, 106, 111, 85, 92, 86, 57, 59, 48, 40, 48, 32, 18, 0, 0, 0, 0, 0, 0, 0, 0, 0, 0, 0, 0, 0, 0, 0, 0, 0, 0, 0, 0, 0, 0, 0, 0, 0, 0, 0, 0, 0, 0, 0, 0, 0, 0, 0, 0, 0, 0, 0, 0, 0, 0, 0, 0, 0, 0, 0, 0, 0, 0, 0, 0, 0, 0, 0, 0, 0, 0, 0, 0
0, 0, 45, 0, 1, 1, 7, 10, 13, 14, 45, 35, 49, 50, 75, 74, 81, 98, 98, 100, 117, 119, 139, 141, 135, 111, 107, 111, 102, 88, 110, 87, 117, 105, 89, 80, 78, 81, 66, 58, 44, 53, 40, 30, 24, 10, 1, 0, 0, 0, 0, 0, 0, 0, 0, 0, 0, 0, 0, 0, 0, 0, 0, 0, 0, 0, 0, 0, 0, 0, 0, 0, 0, 0, 0, 0, 0, 0, 0, 0, 0, 0, 0, 0, 0, 0, 0, 0, 0, 0, 0, 0, 0, 0, 0, 0, 0, 0, 0, 0, 0, 0, 0, 0, 0, 0
0, 0, 46, 2, 1, 0, 1, 3, 5, 8, 37, 26, 36, 46, 57, 57, 55, 75, 86, 94, 89, 99, 139, 100, 116, 108, 111, 86, 93, 94, 103, 101, 85, 83, 74, 62, 77, 60, 72, 52, 51, 43, 41, 39, 21, 10, 0, 0, 0, 0, 0, 0, 0, 0, 0, 0, 0, 0, 0, 0, 0, 0, 0, 0, 0, 0, 0, 0, 0, 0, 0, 0, 0, 0, 0, 0, 0, 0, 0, 0, 0, 0, 0, 0, 0, 0, 0, 0, 0, 0, 0, 0, 0, 0, 0, 0, 0, 0, 0, 0, 0, 0, 0, 0, 0, 0
0, 0, 47, 3, 0, 0, 4, 3, 4, 7, 25, 23, 37, 28, 37, 46, 47, 64, 73, 69, 85, 77, 69, 98, 75, 91, 78, 90, 99, 81, 83, 116, 82, 72, 84, 64, 60, 49, 54, 55, 43, 33, 25, 25, 23, 10, 2, 0, 0, 0, 0, 0, 0, 0, 0, 0, 0, 0, 0, 0, 0, 0, 0, 0, 0, 0, 0, 0, 0, 0, 0, 0, 0, 0, 0, 0, 0, 0, 0, 0, 0, 0, 0, 0, 0, 0, 0, 0, 0, 0, 0, 0, 0, 0, 0, 0, 0, 0, 0, 0, 0, 0, 0, 0, 0, 0
0, 0, 48, 0, 0, 0, 0, 0, 5, 9, 25, 13, 25, 26, 36, 57, 36, 72, 55, 70, 97, 78, 87, 86, 86, 86, 85, 84, 81, 79, 77, 89, 77, 80, 76, 71, 64, 59, 51, 40, 40, 42, 35, 27, 24, 13, 3, 0, 0, 0, 0, 0, 0, 0, 0, 0, 0, 0, 0, 0, 0, 0, 0, 0, 0, 0, 0, 0, 0, 0, 0, 0, 0, 0, 0, 0, 0, 0, 0, 0, 0, 0, 0, 0, 0, 0, 0, 0, 0, 0, 0, 0, 0, 0, 0, 0, 0, 0, 0, 0, 0, 0, 0, 0, 0, 0
0, 0, 49, 0, 0, 0, 0, 0, 3, 6, 19, 10, 7, 26, 29, 36, 53, 51, 53, 61, 82, 70, 96, 75, 87, 71, 65, 96, 85, 68, 95, 72, 67, 75, 80, 66, 50, 57, 40, 43, 37, 46, 23, 17, 21, 11, 0, 0, 0, 0, 0, 0, 0, 0, 0, 0, 0, 0, 0, 0, 0, 0, 0, 0, 0, 0, 0, 0, 0, 0, 0, 0, 0, 0, 0, 0, 0, 0, 0, 0, 0, 0, 0, 0, 0, 0, 0, 0, 0, 0, 0, 0, 0, 0, 0, 0, 0, 0, 0, 0, 0, 0, 0, 0, 0, 0
0, 0, 50, 0, 0, 0, 0, 0, 1, 5, 25, 9, 17, 29, 37, 50, 41, 48, 56, 54, 81, 65, 69, 78, 70, 91, 87, 77, 81, 77, 68, 86, 66, 59, 49, 56, 55, 64, 42, 43, 45, 30, 25, 27, 19, 11, 0, 0, 0, 0, 0, 0, 0, 0, 0, 0, 0, 0, 0, 0, 0, 0, 0, 0, 0, 0, 0, 0, 0, 0, 0, 0, 0, 0, 0, 0, 0, 0, 0, 0, 0, 0, 0, 0, 0, 0, 0, 0, 0, 0, 0, 0, 0, 0, 0, 0, 0, 0, 0, 0, 0, 0, 0, 0, 0, 0
0, 0, 51, 3, 0, 1, 0, 1, 5, 2, 15, 14, 12, 34, 34, 31, 39, 42, 63, 80, 62, 78, 83, 67, 86, 79, 84, 79, 77, 88, 76, 86, 68, 67, 68, 52, 56, 52, 39, 43, 35, 25, 31, 21, 19, 14, 1, 0, 0, 0, 0, 0, 0, 0, 0, 0, 0, 0, 0, 0, 0, 0, 0, 0, 0, 0, 0, 0, 0, 0, 0, 0, 0, 0, 0, 0, 0, 0, 0, 0, 0, 0, 0, 0, 0, 0, 0, 0, 0, 0, 0, 0, 0, 0, 0, 0, 0, 0, 0, 0, 0, 0, 0, 0, 0, 0
0, 0, 52, 1, 1, 0, 1, 4, 2, 4, 31, 17, 33, 24, 53, 45, 57, 56, 55, 67, 70, 86, 84, 96, 104, 94, 86, 95, 92, 107, 84, 70, 75, 73, 84, 70, 72, 64, 59, 44, 29, 36, 33, 23, 24, 19, 1, 0, 0, 0, 0, 0, 0, 0, 0, 0, 0, 0, 0, 0, 0, 0, 0, 0, 0, 0, 0, 0, 0, 0, 0, 0, 0, 0, 0, 0, 0, 0, 0, 0, 0, 0, 0, 0, 0, 0, 0, 0, 0, 0, 0, 0, 0, 0, 0, 0, 0, 0, 0, 0, 0, 0, 0, 0, 0, 0
0, 0, 53, 1, 0, 0, 0, 1, 5, 7, 29, 25, 31, 36, 56, 60, 64, 86, 74, 79, 108, 85, 104, 101, 119, 101, 83, 98, 89, 74, 102, 99, 108, 94, 57, 88, 68, 68, 44, 41, 47, 43, 49, 22, 19, 7, 0, 0, 0, 0, 0, 0, 0, 0, 0, 0, 0, 0, 0, 0, 0, 0, 0, 0, 0, 0, 0, 0, 0, 0, 0, 0, 0, 0, 0, 0, 0, 0, 0, 0, 0, 0, 0, 0, 0, 0, 0, 0, 0, 0, 0, 0, 0, 0, 0, 0, 0, 0, 0, 0, 0, 0, 0, 0, 0, 0
0, 0, 54, 0, 2, 3, 4, 6, 7, 20, 44, 46, 37, 54, 74, 79, 76, 89, 86, 121, 127, 106, 139, 121, 145, 123, 136, 92, 127, 119, 113, 80, 123, 96, 85, 82, 68, 78, 71, 56, 58, 36, 47, 21, 27, 12, 1, 0, 0, 0, 0, 0, 0, 0, 0, 0, 0, 0, 0, 0, 0, 0, 0, 0, 0, 0, 0, 0, 0, 0, 0, 0, 0, 0, 0, 0, 0, 0, 0, 0, 0, 0, 0, 0, 0, 0, 0, 0, 0, 0, 0, 0, 0, 0, 0, 0, 0, 0, 0, 0, 0, 0, 0, 0, 0, 0
0, 0, 55, 1, 0, 3, 3, 9, 24, 32, 46, 59, 57, 70, 94, 120, 116, 115, 125, 127, 133, 118, 162, 145, 162, 165, 152, 123, 117, 143, 115, 145, 136, 97, 106, 83, 92, 83, 78, 85, 74, 38, 37, 43, 23, 21, 1, 0, 0, 0, 0, 0, 0, 0, 0, 0, 0, 0, 0, 0, 0, 0, 0, 0, 0, 0, 0, 0, 0, 0, 0, 0, 0, 0, 0, 0, 0, 0, 0, 0, 0, 0, 0, 0, 0, 0, 0, 0, 0, 0, 0, 0, 0, 0, 0, 0, 0, 0, 0, 0, 0, 0, 0, 0, 0, 0
0, 0, 56, 0, 0, 5, 4, 14, 22, 28, 68, 54, 64, 89, 117, 108, 150, 134, 158, 156, 149, 150, 175, 180, 163, 193, 169, 157, 147, 131, 147, 142, 155, 114, 114, 115, 86, 86, 91, 82, 69, 68, 44, 43, 32, 16, 2, 0, 0, 0, 0, 0, 0, 0, 0, 0, 0, 0, 0, 0, 0, 0, 0, 0, 0, 0, 0, 0, 0, 0, 0, 0, 0, 0, 0, 0, 0, 0, 0, 0, 0, 0, 0, 0, 0, 0, 0, 0, 0, 0, 0, 0, 0, 0, 0, 0, 0, 0, 0, 0, 0, 0, 0, 0, 0, 0
0, 0, 57, 0, 3, 7, 8, 13, 31, 50, 91, 77, 89, 125, 119, 156, 149, 169, 151, 174, 188, 203, 199, 217, 185, 209, 199, 210, 203, 151, 166, 157, 147, 138, 142, 126, 121, 91, 63, 94, 90, 56, 57, 48, 43, 19, 2, 0, 0, 0, 0, 0, 0, 0, 0, 0, 0, 0, 0, 0, 0, 0, 0, 0, 0, 0, 0, 0, 0, 0, 0, 0, 0, 0, 0, 0, 0, 0, 0, 0, 0, 0, 0, 0, 0, 0, 0, 0, 0, 0, 0, 0, 0, 0, 0, 0, 0, 0, 0, 0, 0, 0, 0, 0, 0, 0
0, 0, 58, 5, 9, 5, 15, 24, 32, 45, 107, 82, 100, 124, 156, 210, 163, 226, 206, 239, 265, 252, 268, 233, 218, 231, 210, 200, 184, 199, 188, 210, 178, 154, 152, 148, 115, 131, 109, 108, 68, 90, 54, 50, 39, 30, 1, 0, 0, 0, 0, 0, 0, 0, 0, 0, 0, 0, 0, 0, 0, 0, 0, 0, 0, 0, 0, 0, 0, 0, 0, 0, 0, 0, 0, 0, 0, 0, 0, 0, 0, 0, 0, 0, 0, 0, 0, 0, 0, 0, 0, 0, 0, 0, 0, 0, 0, 0, 0, 0, 0, 0, 0, 0, 0, 0
0, 0, 59, 4, 1, 9, 14, 27, 41, 48, 115, 104, 109, 140, 162, 192, 205, 208, 248, 263, 243, 259, 233, 255, 227, 263, 214, 230, 227, 240, 202, 177, 163, 165, 147, 164, 152, 111, 107, 98, 76, 80, 60, 65, 42, 23, 1, 0, 0, 0, 0, 0, 0, 0, 0, 0, 0, 0, 0, 0, 0, 0, 0, 0, 0, 0, 0, 0, 0, 0, 0, 0, 0, 0, 0, 0, 0, 0, 0, 0, 0, 0, 0, 0, 0, 0, 0, 0, 0, 0, 0, 0, 0, 0, 0, 0, 0, 0, 0, 0, 0, 0, 0, 0, 0, 0
0, 0, 60, 0, 0, 11, 17, 26, 37, 59, 114, 109, 124, 128, 171, 218, 201, 200, 208, 232, 267, 234, 264, 242, 278, 247, 219, 242, 221, 208, 185, 205, 183, 172, 168, 149, 154, 136, 113, 105, 82, 98, 81, 47, 37, 19, 1, 0, 0, 0, 0, 0, 0, 0, 0, 0, 0, 0, 0, 0, 0, 0, 0, 0, 0, 0, 0, 0, 0, 0, 0, 0, 0, 0, 0, 0, 0, 0, 0, 0, 0, 0, 0, 0, 0, 0, 0, 0, 0, 0, 0, 0, 0, 0, 0, 0, 0, 0, 0, 0, 0, 0, 0, 0, 0, 0
0, 0, 61, 5, 2, 7, 14, 39, 32, 69, 120, 96, 124, 144, 152, 222, 233, 208, 219, 232, 255, 236, 250, 236, 252, 244, 240, 213, 223, 223, 176, 205, 182, 177, 166, 149, 160, 136, 108, 91, 89, 68, 94, 57, 41, 19, 1, 0, 0, 0, 0, 0, 0, 0, 0, 0, 0, 0, 0, 0, 0, 0, 0, 0, 0, 0, 0, 0, 0, 0, 0, 0, 0, 0, 0, 0, 0, 0, 0, 0, 0, 0, 0, 0, 0, 0, 0, 0, 0, 0, 0, 0, 0, 0, 0, 0, 0, 0, 0, 0, 0, 0, 0, 0, 0, 0
0, 0, 62, 2, 6, 8, 8, 27, 37, 56, 132, 70, 117, 135, 188, 180, 200, 224, 208, 233, 240, 274, 260, 244, 251, 260, 235, 217, 236, 202, 225, 183, 187, 165, 175, 149, 122, 116, 130, 116, 84, 90, 56, 58, 39, 14, 2, 0, 0, 0, 0, 0, 0, 0, 0, 0, 0, 0, 0, 0, 0, 0, 0, 0, 0, 0, 0, 0, 0, 0, 0, 0, 0, 0, 0, 0, 0, 0, 0, 0, 0, 0, 0, 0, 0, 0, 0, 0, 0, 0, 0, 0, 0, 0, 0, 0, 0, 0, 0, 0, 0, 0, 0, 0, 0, 0
0, 0, 63, 1, 2, 8, 19, 16, 43, 50, 111, 100, 112, 120, 166, 214, 194, 213, 267, 235, 271, 284, 237, 228, 239, 211, 226, 207, 246, 210, 201, 194, 163, 186, 169, 163, 152, 113, 124, 109, 110, 80, 62, 55, 26, 23, 1, 0, 0, 0, 0, 0, 0, 0, 0, 0, 0, 0, 0, 0, 0, 0, 0, 0, 0, 0, 0, 0, 0, 0, 0, 0, 0, 0, 0, 0, 0, 0, 0, 0, 0, 0, 0, 0, 0, 0, 0, 0, 0, 0, 0, 0, 0, 0, 0, 0, 0, 0, 0, 0, 0, 0, 0, 0, 0, 0
0, 0, 64, 4, 1, 5, 11, 21, 26, 53, 129, 83, 107, 147, 196, 193, 198, 213, 222, 235, 270, 256, 289, 238, 249, 244, 205, 228, 210, 190, 196, 183, 186, 163, 138, 136, 123, 133, 119, 115, 90, 64, 64, 70, 43, 16, 1, 0, 0, 0, 0, 0, 0, 0, 0, 0, 0, 0, 0, 0, 0, 0, 0, 0, 0, 0, 0, 0, 0, 0, 0, 0, 0, 0, 0, 0, 0, 0, 0, 0, 0, 0, 0, 0, 0, 0, 0, 0, 0, 0, 0, 0, 0, 0, 0, 0, 0, 0, 0, 0, 0, 0, 0, 0, 0, 0
0, 0, 65, 3, 6, 10, 15, 28, 47, 70, 107, 107, 116, 162, 176, 205, 208, 220, 224, 261, 268, 267, 284, 262, 261, 245, 258, 227, 206, 189, 210, 191, 198, 154, 151, 153, 106, 129, 129, 105, 71, 101, 79, 55, 45, 25, 1, 0, 0, 0, 0, 0, 0, 0, 0, 0, 0, 0, 0, 0, 0, 0, 0, 0, 0, 0, 0, 0, 0, 0, 0, 0, 0, 0, 0, 0, 0, 0, 0, 0, 0, 0, 0, 0, 0, 0, 0, 0, 0, 0, 0, 0, 0, 0, 0, 0, 0, 0, 0, 0, 0, 0, 0, 0, 0, 0
0, 0, 66, 5, 1, 8, 15, 26, 34, 51, 120, 103, 119, 156, 172, 201, 178, 201, 203, 221, 245, 260, 255, 264, 238, 247, 228, 215, 199, 209, 212, 161, 184, 166, 161, 165, 155, 116, 119, 91, 95, 77, 67, 50, 44, 24, 2, 0, 0, 0, 0, 0, 0, 0, 0, 0, 0, 0, 0, 0, 0, 0, 0, 0, 0, 0, 0, 0, 0, 0, 0, 0, 0, 0, 0, 0, 0, 0, 0, 0, 0, 0, 0, 0, 0, 0, 0, 0, 0, 0, 0, 0, 0, 0, 0, 0, 0, 0, 0, 0, 0, 0, 0, 0, 0, 0
0, 0, 67, 2, 3, 9, 16, 26, 46, 50, 100, 87, 108, 123, 186, 204, 212, 217, 208, 224, 275, 265, 247, 242, 270, 283, 231, 249, 211, 208, 195, 197, 197, 158, 164, 162, 128, 105, 110, 105, 99, 87, 72, 50, 37, 21, 2, 0, 0, 0, 0, 0, 0, 0, 0, 0, 0, 0, 0, 0, 0, 0, 0, 0, 0, 0, 0, 0, 0, 0, 0, 0, 0, 0, 0, 0, 0, 0, 0, 0, 0, 0, 0, 0, 0, 0, 0, 0, 0, 0, 0, 0, 0, 0, 0, 0, 0, 0, 0, 0, 0, 0, 0, 0, 0, 0
0, 0, 68, 1, 6, 8, 14, 36, 37, 49, 112, 77, 117, 154, 170, 211, 201, 238, 219, 219, 268, 251, 263, 278, 222, 221, 267, 258, 240, 217, 212, 180, 186, 166, 128, 160, 165, 128, 129, 115, 95, 94, 87, 60, 37, 19, 2, 0, 0, 0, 0, 0, 0, 0, 0, 0, 0, 0, 0, 0, 0, 0, 0, 0, 0, 0, 0, 0, 0, 0, 0, 0, 0, 0, 0, 0, 0, 0, 0, 0, 0, 0, 0, 0, 0, 0, 0, 0, 0, 0, 0, 0, 0, 0, 0, 0, 0, 0, 0, 0, 0, 0, 0, 0, 0, 0
0, 0, 69, 7, 2, 8, 16, 23, 46, 65, 107, 91, 112, 124, 167, 178, 211, 220, 254, 229, 230, 265, 242, 250, 212, 239, 234, 230, 202, 221, 195, 190, 178, 168, 154, 147, 131, 130, 123, 98, 95, 68, 47, 69, 37, 29, 0, 0, 0, 0, 0, 0, 0, 0, 0, 0, 0, 0, 0, 0, 0, 0, 0, 0, 0, 0, 0, 0, 0, 0, 0, 0, 0, 0, 0, 0, 0, 0, 0, 0, 0, 0, 0, 0, 0, 0, 0, 0, 0, 0, 0, 0, 0, 0, 0, 0, 0, 0, 0, 0, 0, 0, 0, 0, 0, 0
0, 0, 70, 4, 2, 6, 14, 30, 33, 60, 111, 74, 108, 151, 179, 208, 178, 204, 236, 244, 245, 270, 263, 241, 249, 243, 234, 216, 215, 207, 185, 181, 192, 164, 154, 144, 120, 122, 116, 95, 103, 85, 66, 48, 40, 16, 1, 0, 0, 0, 0, 0, 0, 0, 0, 0, 0, 0, 0, 0, 0, 0, 0, 0, 0, 0, 0, 0, 0, 0, 0, 0, 0, 0, 0, 0, 0, 0, 0, 0, 0, 0, 0, 0, 0, 0, 0, 0, 0, 0, 0, 0, 0, 0, 0, 0, 0, 0, 0, 0, 0, 0, 0, 0, 0, 0
0, 0, 71, 1, 2, 9, 13, 30, 43, 52, 116, 84, 125, 140, 149, 223, 198, 231, 249, 238, 270, 248, 247, 224, 241, 240, 234, 234, 207, 259, 192, 188, 175, 177, 155, 152, 122, 119, 92, 102, 91, 87, 52, 53, 49, 20, 1, 0, 0, 0, 0, 0, 0, 0, 0, 0, 0, 0, 0, 0, 0, 0, 0, 0, 0, 0, 0, 0, 0, 0, 0, 0, 0, 0, 0, 0, 0, 0, 0, 0, 0, 0, 0, 0, 0, 0, 0, 0, 0, 0, 0, 0, 0, 0, 0, 0, 0, 0, 0, 0, 0, 0, 0, 0, 0, 0
0, 0, 72, 4, 6, 12, 12, 23, 31, 67, 119, 75, 107, 134, 158, 198, 202, 226, 227, 255, 251, 207, 258, 233, 226, 259, 240, 209, 205, 233, 193, 194, 200, 183, 177, 134, 147, 124, 105, 104, 101, 77, 71, 39, 42, 18, 2, 0, 0, 0, 0, 0, 0, 0, 0, 0, 0, 0, 0, 0, 0, 0, 0, 0, 0, 0, 0, 0, 0, 0, 0, 0, 0, 0, 0, 0, 0, 0, 0, 0, 0, 0, 0, 0, 0, 0, 0, 0, 0, 0, 0, 0, 0, 0, 0, 0, 0, 0, 0, 0, 0, 0, 0, 0, 0, 0
0, 0, 73, 5, 3, 5, 16, 35, 32, 65, 105, 111, 113, 141, 194, 225, 207, 217, 238, 243, 235, 233, 243, 241, 214, 225, 232, 210, 239, 198, 202, 196, 205, 176, 159, 140, 141, 129, 120, 104, 80, 77, 68, 58, 31, 24, 3, 0, 0, 0, 0, 0, 0, 0, 0, 0, 0, 0, 0, 0, 0, 0, 0, 0, 0, 0, 0, 0, 0, 0, 0, 0, 0, 0, 0, 0, 0, 0, 0, 0, 0, 0, 0, 0, 0, 0, 0, 0, 0, 0, 0, 0, 0, 0, 0, 0, 0, 0, 0, 0, 0, 0, 0, 0, 0, 0
0, 0, 74, 5, 3, 9, 12, 26, 38, 69, 121, 84, 120, 165, 175, 188, 178, 208, 231, 234, 256, 252, 222, 216, 216, 258, 227, 217, 211, 202, 204, 182, 178, 174, 149, 134, 126, 163, 131, 104, 104, 88, 66, 50, 49, 23, 2, 0, 0, 0, 0, 0, 0, 0, 0, 0, 0, 0, 0, 0, 0, 0, 0, 0, 0, 0, 0, 0, 0, 0, 0, 0, 0, 0, 0, 0, 0, 0, 0, 0, 0, 0, 0, 0, 0, 0, 0, 0, 0, 0, 0, 0, 0, 0, 0, 0, 0, 0, 0, 0, 0, 0, 0, 0, 0, 0
0, 0, 75, 3, 2, 9, 14, 27, 28, 50, 123, 89, 107, 143, 162, 211, 203, 206, 212, 226, 240, 215, 265, 253, 273, 234, 273, 231, 195, 255, 222, 204, 155, 177, 136, 127, 126, 147, 122, 92, 96, 87, 58, 45, 40, 27, 3, 0, 0, 0, 0, 0, 0, 0, 0, 0, 0, 0, 0, 0, 0, 0, 0, 0, 0, 0, 0, 0, 0, 0, 0, 0, 0, 0, 0, 0, 0, 0, 0, 0, 0, 0, 0, 0, 0, 0, 0, 0, 0, 0, 0, 0, 0, 0, 0, 0, 0, 0, 0, 0, 0, 0, 0, 0, 0, 0
0, 0, 76, 1, 3, 8, 19, 30, 39, 70, 116, 82, 108, 127, 188, 193, 199, 218, 199, 268, 252, 266, 245, 250, 226, 255, 238, 239, 249, 212, 194, 196, 160, 149, 146, 149, 143, 114, 136, 111, 92, 78, 46, 59, 45, 25, 0, 0, 0, 0, 0, 0, 0, 0, 0, 0, 0, 0, 0, 0, 0, 0, 0, 0, 0, 0, 0, 0, 0, 0, 0, 0, 0, 0, 0, 0, 0, 0, 0, 0, 0, 0, 0, 0, 0, 0, 0, 0, 0, 0, 0, 0, 0, 0, 0, 0, 0, 0, 0, 0, 0, 0, 0, 0, 0, 0
0, 0, 77, 3, 6, 4, 12, 31, 35, 66, 98, 84, 111, 143, 173, 197, 189, 225, 205, 209, 285, 240, 267, 238, 225, 250, 248, 214, 225, 215, 191, 210, 190, 157, 153, 153, 144, 122, 112, 94, 72, 80, 70, 47, 46, 21, 1, 0, 0, 0, 0, 0, 0, 0, 0, 0, 0, 0, 0, 0, 0, 0, 0, 0, 0, 0, 0, 0, 0, 0, 0, 0, 0, 0, 0, 0, 0, 0, 0, 0, 0, 0, 0, 0, 0, 0, 0, 0, 0, 0, 0, 0, 0, 0, 0, 0, 0, 0, 0, 0, 0, 0, 0, 0, 0, 0
