# TOPAS Version: 3.1.p3
# Parameter File: REDLEN_small_phantom_mc_basic_2cm.txt
# Results for scorer PhantomDose
# Scored on surface: CdTeCrystal1/YPlusSurface
# X in 100 bins of 0.03332 cm
# Y in 1 bin  of 0.4 cm
# Z in 100 bins of 0.0375 cm
# SurfaceTrackCount : Sum   
# Binned by incident track energy in 100 bins of 0.00104 MeV from 0.016 MeV to 0.12 MeV
# First bin is underflow, next to last bin is overflow, last bin is for case of no incident track.
0, 0, 0, 0, 0, 0, 0, 0, 0, 1, 2, 0, 0, 0, 0, 2, 0, 0, 3, 4, 1, 5, 1, 4, 4, 1, 2, 1, 1, 1, 2, 1, 2, 6, 1, 1, 2, 1, 1, 2, 0, 1, 0, 1, 0, 0, 0, 0, 0, 0, 0, 0, 0, 0, 0, 0, 0, 0, 0, 0, 0, 0, 0, 0, 0, 0, 0, 0, 0, 0, 0, 0, 0, 0, 0, 0, 0, 0, 0, 0, 0, 0, 0, 0, 0, 0, 0, 0, 0, 0, 0, 0, 0, 0, 0, 0, 0, 0, 0, 0, 0, 0, 0, 0, 0, 0
0, 0, 1, 0, 0, 0, 0, 0, 0, 0, 0, 1, 2, 3, 3, 0, 4, 2, 0, 3, 3, 0, 4, 0, 3, 1, 2, 3, 1, 0, 1, 1, 3, 1, 1, 0, 2, 2, 0, 3, 3, 3, 1, 0, 0, 0, 0, 0, 0, 0, 0, 0, 0, 0, 0, 0, 0, 0, 0, 0, 0, 0, 0, 0, 0, 0, 0, 0, 0, 0, 0, 0, 0, 0, 0, 0, 0, 0, 0, 0, 0, 0, 0, 0, 0, 0, 0, 0, 0, 0, 0, 0, 0, 0, 0, 0, 0, 0, 0, 0, 0, 0, 0, 0, 0, 0
0, 0, 2, 0, 0, 0, 0, 0, 1, 0, 0, 0, 1, 0, 1, 3, 2, 0, 2, 2, 5, 2, 2, 3, 0, 3, 0, 2, 1, 5, 0, 5, 3, 0, 1, 5, 2, 2, 0, 0, 1, 1, 2, 0, 0, 0, 0, 0, 0, 0, 0, 0, 0, 0, 0, 0, 0, 0, 0, 0, 0, 0, 0, 0, 0, 0, 0, 0, 0, 0, 0, 0, 0, 0, 0, 0, 0, 0, 0, 0, 0, 0, 0, 0, 0, 0, 0, 0, 0, 0, 0, 0, 0, 0, 0, 0, 0, 0, 0, 0, 0, 0, 0, 0, 0, 0
0, 0, 3, 2, 0, 0, 0, 0, 0, 0, 1, 0, 1, 0, 4, 0, 2, 2, 2, 5, 1, 2, 4, 5, 6, 6, 3, 4, 0, 3, 0, 2, 1, 1, 0, 1, 1, 1, 0, 1, 0, 2, 1, 0, 0, 0, 0, 0, 0, 0, 0, 0, 0, 0, 0, 0, 0, 0, 0, 0, 0, 0, 0, 0, 0, 0, 0, 0, 0, 0, 0, 0, 0, 0, 0, 0, 0, 0, 0, 0, 0, 0, 0, 0, 0, 0, 0, 0, 0, 0, 0, 0, 0, 0, 0, 0, 0, 0, 0, 0, 0, 0, 0, 0, 0, 0
0, 0, 4, 1, 0, 0, 0, 0, 0, 2, 3, 0, 1, 3, 4, 2, 0, 2, 0, 5, 0, 0, 4, 2, 1, 3, 5, 3, 2, 3, 4, 3, 0, 2, 0, 2, 2, 0, 2, 1, 0, 2, 1, 0, 0, 0, 0, 0, 0, 0, 0, 0, 0, 0, 0, 0, 0, 0, 0, 0, 0, 0, 0, 0, 0, 0, 0, 0, 0, 0, 0, 0, 0, 0, 0, 0, 0, 0, 0, 0, 0, 0, 0, 0, 0, 0, 0, 0, 0, 0, 0, 0, 0, 0, 0, 0, 0, 0, 0, 0, 0, 0, 0, 0, 0, 0
0, 0, 5, 0, 1, 4, 8, 8, 13, 34, 49, 35, 51, 62, 72, 97, 69, 98, 96, 105, 117, 116, 88, 98, 131, 109, 104, 111, 104, 82, 81, 80, 82, 72, 74, 70, 60, 56, 57, 50, 41, 32, 29, 29, 14, 11, 0, 0, 0, 0, 0, 0, 0, 0, 0, 0, 0, 0, 0, 0, 0, 0, 0, 0, 0, 0, 0, 0, 0, 0, 0, 0, 0, 0, 0, 0, 0, 0, 0, 0, 0, 0, 0, 0, 0, 0, 0, 0, 0, 0, 0, 0, 0, 0, 0, 0, 0, 0, 0, 0, 0, 0, 0, 0, 0, 0
0, 0, 6, 2, 6, 7, 20, 23, 37, 49, 139, 99, 129, 128, 169, 194, 198, 228, 215, 239, 234, 228, 248, 235, 265, 227, 230, 206, 219, 184, 191, 195, 190, 153, 132, 156, 137, 98, 113, 106, 94, 86, 54, 54, 32, 19, 1, 0, 0, 0, 0, 0, 0, 0, 0, 0, 0, 0, 0, 0, 0, 0, 0, 0, 0, 0, 0, 0, 0, 0, 0, 0, 0, 0, 0, 0, 0, 0, 0, 0, 0, 0, 0, 0, 0, 0, 0, 0, 0, 0, 0, 0, 0, 0, 0, 0, 0, 0, 0, 0, 0, 0, 0, 0, 0, 0
0, 0, 7, 2, 3, 5, 13, 29, 37, 56, 116, 93, 109, 159, 183, 195, 204, 224, 250, 245, 230, 260, 258, 240, 230, 242, 235, 214, 219, 219, 172, 189, 219, 151, 158, 157, 138, 131, 116, 104, 87, 89, 63, 54, 43, 20, 4, 0, 0, 0, 0, 0, 0, 0, 0, 0, 0, 0, 0, 0, 0, 0, 0, 0, 0, 0, 0, 0, 0, 0, 0, 0, 0, 0, 0, 0, 0, 0, 0, 0, 0, 0, 0, 0, 0, 0, 0, 0, 0, 0, 0, 0, 0, 0, 0, 0, 0, 0, 0, 0, 0, 0, 0, 0, 0, 0
0, 0, 8, 1, 2, 9, 13, 28, 39, 60, 120, 93, 107, 172, 175, 192, 209, 220, 212, 220, 272, 225, 256, 225, 241, 221, 240, 217, 203, 198, 237, 242, 183, 147, 158, 149, 118, 135, 114, 103, 90, 91, 63, 61, 27, 24, 1, 0, 0, 0, 0, 0, 0, 0, 0, 0, 0, 0, 0, 0, 0, 0, 0, 0, 0, 0, 0, 0, 0, 0, 0, 0, 0, 0, 0, 0, 0, 0, 0, 0, 0, 0, 0, 0, 0, 0, 0, 0, 0, 0, 0, 0, 0, 0, 0, 0, 0, 0, 0, 0, 0, 0, 0, 0, 0, 0
0, 0, 9, 4, 2, 4, 9, 17, 47, 62, 112, 87, 121, 125, 170, 196, 199, 213, 228, 236, 251, 260, 266, 259, 245, 255, 241, 236, 231, 199, 196, 202, 159, 171, 142, 156, 143, 125, 119, 113, 77, 79, 60, 44, 40, 30, 4, 0, 0, 0, 0, 0, 0, 0, 0, 0, 0, 0, 0, 0, 0, 0, 0, 0, 0, 0, 0, 0, 0, 0, 0, 0, 0, 0, 0, 0, 0, 0, 0, 0, 0, 0, 0, 0, 0, 0, 0, 0, 0, 0, 0, 0, 0, 0, 0, 0, 0, 0, 0, 0, 0, 0, 0, 0, 0, 0
0, 0, 10, 5, 3, 8, 15, 24, 41, 49, 108, 80, 115, 154, 163, 200, 197, 232, 256, 282, 273, 251, 242, 224, 236, 276, 237, 207, 199, 199, 191, 219, 180, 148, 185, 139, 138, 108, 109, 80, 110, 84, 70, 49, 51, 25, 0, 0, 0, 0, 0, 0, 0, 0, 0, 0, 0, 0, 0, 0, 0, 0, 0, 0, 0, 0, 0, 0, 0, 0, 0, 0, 0, 0, 0, 0, 0, 0, 0, 0, 0, 0, 0, 0, 0, 0, 0, 0, 0, 0, 0, 0, 0, 0, 0, 0, 0, 0, 0, 0, 0, 0, 0, 0, 0, 0
0, 0, 11, 1, 3, 9, 17, 22, 53, 63, 119, 81, 98, 135, 163, 183, 192, 220, 236, 246, 233, 252, 227, 253, 254, 237, 227, 204, 219, 225, 192, 180, 165, 173, 156, 146, 120, 105, 110, 115, 94, 68, 65, 57, 41, 24, 1, 0, 0, 0, 0, 0, 0, 0, 0, 0, 0, 0, 0, 0, 0, 0, 0, 0, 0, 0, 0, 0, 0, 0, 0, 0, 0, 0, 0, 0, 0, 0, 0, 0, 0, 0, 0, 0, 0, 0, 0, 0, 0, 0, 0, 0, 0, 0, 0, 0, 0, 0, 0, 0, 0, 0, 0, 0, 0, 0
0, 0, 12, 0, 1, 16, 13, 20, 41, 58, 135, 72, 113, 170, 185, 211, 177, 228, 226, 243, 257, 233, 285, 248, 219, 249, 223, 241, 197, 223, 187, 177, 159, 192, 152, 158, 149, 141, 107, 117, 67, 84, 60, 39, 39, 24, 1, 0, 0, 0, 0, 0, 0, 0, 0, 0, 0, 0, 0, 0, 0, 0, 0, 0, 0, 0, 0, 0, 0, 0, 0, 0, 0, 0, 0, 0, 0, 0, 0, 0, 0, 0, 0, 0, 0, 0, 0, 0, 0, 0, 0, 0, 0, 0, 0, 0, 0, 0, 0, 0, 0, 0, 0, 0, 0, 0
0, 0, 13, 2, 3, 6, 10, 29, 45, 62, 120, 94, 104, 147, 162, 219, 188, 202, 234, 255, 264, 226, 228, 251, 283, 252, 262, 216, 211, 211, 198, 195, 197, 166, 159, 143, 144, 114, 119, 117, 70, 72, 70, 51, 36, 17, 1, 0, 0, 0, 0, 0, 0, 0, 0, 0, 0, 0, 0, 0, 0, 0, 0, 0, 0, 0, 0, 0, 0, 0, 0, 0, 0, 0, 0, 0, 0, 0, 0, 0, 0, 0, 0, 0, 0, 0, 0, 0, 0, 0, 0, 0, 0, 0, 0, 0, 0, 0, 0, 0, 0, 0, 0, 0, 0, 0
0, 0, 14, 4, 5, 8, 12, 27, 34, 46, 99, 98, 118, 147, 181, 203, 194, 193, 216, 217, 255, 256, 254, 250, 260, 216, 217, 206, 218, 204, 210, 208, 157, 171, 166, 137, 130, 101, 104, 107, 105, 82, 67, 47, 44, 20, 1, 0, 0, 0, 0, 0, 0, 0, 0, 0, 0, 0, 0, 0, 0, 0, 0, 0, 0, 0, 0, 0, 0, 0, 0, 0, 0, 0, 0, 0, 0, 0, 0, 0, 0, 0, 0, 0, 0, 0, 0, 0, 0, 0, 0, 0, 0, 0, 0, 0, 0, 0, 0, 0, 0, 0, 0, 0, 0, 0
0, 0, 15, 3, 2, 7, 12, 24, 37, 65, 118, 86, 93, 154, 163, 206, 203, 217, 227, 249, 265, 279, 233, 237, 259, 230, 249, 246, 203, 194, 174, 176, 152, 162, 175, 143, 146, 109, 110, 94, 85, 80, 58, 63, 50, 21, 1, 0, 0, 0, 0, 0, 0, 0, 0, 0, 0, 0, 0, 0, 0, 0, 0, 0, 0, 0, 0, 0, 0, 0, 0, 0, 0, 0, 0, 0, 0, 0, 0, 0, 0, 0, 0, 0, 0, 0, 0, 0, 0, 0, 0, 0, 0, 0, 0, 0, 0, 0, 0, 0, 0, 0, 0, 0, 0, 0
0, 0, 16, 4, 2, 9, 13, 25, 35, 45, 126, 95, 110, 173, 160, 194, 192, 207, 208, 258, 280, 263, 230, 231, 233, 229, 267, 239, 212, 212, 196, 206, 197, 161, 144, 149, 135, 128, 93, 100, 100, 69, 70, 46, 38, 12, 0, 0, 0, 0, 0, 0, 0, 0, 0, 0, 0, 0, 0, 0, 0, 0, 0, 0, 0, 0, 0, 0, 0, 0, 0, 0, 0, 0, 0, 0, 0, 0, 0, 0, 0, 0, 0, 0, 0, 0, 0, 0, 0, 0, 0, 0, 0, 0, 0, 0, 0, 0, 0, 0, 0, 0, 0, 0, 0, 0
0, 0, 17, 3, 4, 8, 16, 19, 48, 65, 117, 104, 109, 137, 159, 205, 192, 237, 191, 244, 244, 252, 254, 228, 270, 242, 240, 229, 226, 207, 191, 197, 174, 161, 163, 154, 145, 126, 110, 86, 84, 79, 59, 56, 40, 24, 1, 0, 0, 0, 0, 0, 0, 0, 0, 0, 0, 0, 0, 0, 0, 0, 0, 0, 0, 0, 0, 0, 0, 0, 0, 0, 0, 0, 0, 0, 0, 0, 0, 0, 0, 0, 0, 0, 0, 0, 0, 0, 0, 0, 0, 0, 0, 0, 0, 0, 0, 0, 0, 0, 0, 0, 0, 0, 0, 0
0, 0, 18, 4, 2, 3, 13, 22, 30, 48, 115, 99, 124, 145, 194, 196, 235, 224, 212, 230, 250, 291, 268, 238, 248, 237, 231, 237, 260, 181, 176, 159, 185, 175, 151, 154, 139, 129, 102, 97, 109, 81, 50, 67, 35, 20, 1, 0, 0, 0, 0, 0, 0, 0, 0, 0, 0, 0, 0, 0, 0, 0, 0, 0, 0, 0, 0, 0, 0, 0, 0, 0, 0, 0, 0, 0, 0, 0, 0, 0, 0, 0, 0, 0, 0, 0, 0, 0, 0, 0, 0, 0, 0, 0, 0, 0, 0, 0, 0, 0, 0, 0, 0, 0, 0, 0
0, 0, 19, 2, 7, 11, 19, 22, 34, 40, 109, 100, 123, 126, 187, 204, 188, 216, 211, 236, 274, 239, 232, 262, 242, 213, 237, 221, 202, 210, 197, 218, 213, 166, 163, 149, 153, 117, 114, 95, 99, 83, 78, 34, 34, 21, 2, 0, 0, 0, 0, 0, 0, 0, 0, 0, 0, 0, 0, 0, 0, 0, 0, 0, 0, 0, 0, 0, 0, 0, 0, 0, 0, 0, 0, 0, 0, 0, 0, 0, 0, 0, 0, 0, 0, 0, 0, 0, 0, 0, 0, 0, 0, 0, 0, 0, 0, 0, 0, 0, 0, 0, 0, 0, 0, 0
0, 0, 20, 3, 5, 6, 13, 27, 29, 50, 107, 90, 123, 151, 193, 218, 217, 206, 243, 231, 255, 252, 214, 255, 280, 245, 241, 222, 234, 208, 198, 213, 176, 141, 142, 164, 127, 117, 109, 103, 86, 71, 51, 61, 42, 21, 0, 0, 0, 0, 0, 0, 0, 0, 0, 0, 0, 0, 0, 0, 0, 0, 0, 0, 0, 0, 0, 0, 0, 0, 0, 0, 0, 0, 0, 0, 0, 0, 0, 0, 0, 0, 0, 0, 0, 0, 0, 0, 0, 0, 0, 0, 0, 0, 0, 0, 0, 0, 0, 0, 0, 0, 0, 0, 0, 0
0, 0, 21, 0, 3, 8, 13, 29, 40, 63, 141, 86, 128, 143, 165, 215, 194, 221, 210, 233, 273, 227, 254, 236, 251, 239, 260, 218, 256, 190, 167, 195, 199, 181, 141, 173, 139, 134, 95, 92, 99, 77, 69, 54, 36, 23, 0, 0, 0, 0, 0, 0, 0, 0, 0, 0, 0, 0, 0, 0, 0, 0, 0, 0, 0, 0, 0, 0, 0, 0, 0, 0, 0, 0, 0, 0, 0, 0, 0, 0, 0, 0, 0, 0, 0, 0, 0, 0, 0, 0, 0, 0, 0, 0, 0, 0, 0, 0, 0, 0, 0, 0, 0, 0, 0, 0
0, 0, 22, 0, 3, 8, 11, 25, 40, 54, 88, 100, 111, 150, 205, 185, 195, 214, 213, 246, 301, 242, 222, 245, 244, 243, 242, 220, 218, 239, 205, 201, 156, 166, 153, 155, 130, 112, 78, 101, 84, 98, 55, 62, 45, 21, 4, 0, 0, 0, 0, 0, 0, 0, 0, 0, 0, 0, 0, 0, 0, 0, 0, 0, 0, 0, 0, 0, 0, 0, 0, 0, 0, 0, 0, 0, 0, 0, 0, 0, 0, 0, 0, 0, 0, 0, 0, 0, 0, 0, 0, 0, 0, 0, 0, 0, 0, 0, 0, 0, 0, 0, 0, 0, 0, 0
0, 0, 23, 0, 3, 8, 14, 22, 51, 58, 123, 106, 114, 148, 192, 218, 194, 211, 212, 243, 273, 244, 253, 281, 250, 235, 209, 217, 239, 215, 173, 201, 179, 175, 161, 169, 139, 140, 121, 106, 89, 67, 68, 52, 36, 14, 2, 0, 0, 0, 0, 0, 0, 0, 0, 0, 0, 0, 0, 0, 0, 0, 0, 0, 0, 0, 0, 0, 0, 0, 0, 0, 0, 0, 0, 0, 0, 0, 0, 0, 0, 0, 0, 0, 0, 0, 0, 0, 0, 0, 0, 0, 0, 0, 0, 0, 0, 0, 0, 0, 0, 0, 0, 0, 0, 0
0, 0, 24, 1, 1, 5, 14, 19, 37, 54, 117, 98, 102, 144, 170, 198, 203, 217, 238, 227, 264, 252, 263, 245, 249, 242, 234, 231, 219, 218, 201, 219, 180, 194, 165, 124, 140, 130, 148, 103, 99, 70, 62, 68, 45, 23, 2, 0, 0, 0, 0, 0, 0, 0, 0, 0, 0, 0, 0, 0, 0, 0, 0, 0, 0, 0, 0, 0, 0, 0, 0, 0, 0, 0, 0, 0, 0, 0, 0, 0, 0, 0, 0, 0, 0, 0, 0, 0, 0, 0, 0, 0, 0, 0, 0, 0, 0, 0, 0, 0, 0, 0, 0, 0, 0, 0
0, 0, 25, 2, 2, 11, 15, 29, 32, 49, 129, 101, 113, 126, 178, 178, 218, 223, 223, 225, 265, 262, 250, 271, 277, 225, 234, 234, 216, 195, 206, 198, 185, 172, 163, 160, 141, 128, 131, 93, 96, 80, 62, 56, 46, 18, 0, 0, 0, 0, 0, 0, 0, 0, 0, 0, 0, 0, 0, 0, 0, 0, 0, 0, 0, 0, 0, 0, 0, 0, 0, 0, 0, 0, 0, 0, 0, 0, 0, 0, 0, 0, 0, 0, 0, 0, 0, 0, 0, 0, 0, 0, 0, 0, 0, 0, 0, 0, 0, 0, 0, 0, 0, 0, 0, 0
0, 0, 26, 1, 4, 9, 6, 26, 35, 66, 135, 83, 124, 141, 208, 213, 199, 233, 232, 211, 245, 232, 226, 214, 244, 252, 227, 227, 191, 198, 194, 212, 186, 165, 152, 137, 137, 126, 128, 87, 85, 82, 64, 52, 44, 9, 4, 0, 0, 0, 0, 0, 0, 0, 0, 0, 0, 0, 0, 0, 0, 0, 0, 0, 0, 0, 0, 0, 0, 0, 0, 0, 0, 0, 0, 0, 0, 0, 0, 0, 0, 0, 0, 0, 0, 0, 0, 0, 0, 0, 0, 0, 0, 0, 0, 0, 0, 0, 0, 0, 0, 0, 0, 0, 0, 0
0, 0, 27, 2, 6, 7, 20, 38, 42, 42, 128, 79, 116, 164, 191, 193, 205, 221, 264, 222, 232, 253, 240, 234, 239, 220, 254, 221, 194, 209, 188, 180, 178, 167, 162, 157, 135, 130, 116, 124, 99, 81, 57, 53, 49, 22, 0, 0, 0, 0, 0, 0, 0, 0, 0, 0, 0, 0, 0, 0, 0, 0, 0, 0, 0, 0, 0, 0, 0, 0, 0, 0, 0, 0, 0, 0, 0, 0, 0, 0, 0, 0, 0, 0, 0, 0, 0, 0, 0, 0, 0, 0, 0, 0, 0, 0, 0, 0, 0, 0, 0, 0, 0, 0, 0, 0
0, 0, 28, 3, 5, 8, 11, 25, 22, 52, 128, 94, 114, 144, 175, 184, 187, 213, 207, 252, 257, 266, 235, 221, 234, 221, 270, 216, 211, 200, 213, 167, 195, 163, 168, 148, 133, 120, 105, 126, 86, 61, 65, 55, 48, 14, 0, 0, 0, 0, 0, 0, 0, 0, 0, 0, 0, 0, 0, 0, 0, 0, 0, 0, 0, 0, 0, 0, 0, 0, 0, 0, 0, 0, 0, 0, 0, 0, 0, 0, 0, 0, 0, 0, 0, 0, 0, 0, 0, 0, 0, 0, 0, 0, 0, 0, 0, 0, 0, 0, 0, 0, 0, 0, 0, 0
0, 0, 29, 0, 2, 5, 9, 26, 34, 57, 102, 91, 109, 143, 189, 193, 188, 195, 207, 244, 230, 219, 221, 282, 225, 213, 223, 224, 202, 229, 200, 200, 206, 164, 175, 150, 125, 119, 112, 111, 107, 85, 73, 40, 35, 31, 0, 0, 0, 0, 0, 0, 0, 0, 0, 0, 0, 0, 0, 0, 0, 0, 0, 0, 0, 0, 0, 0, 0, 0, 0, 0, 0, 0, 0, 0, 0, 0, 0, 0, 0, 0, 0, 0, 0, 0, 0, 0, 0, 0, 0, 0, 0, 0, 0, 0, 0, 0, 0, 0, 0, 0, 0, 0, 0, 0
0, 0, 30, 4, 6, 7, 26, 31, 40, 60, 101, 100, 128, 150, 171, 201, 210, 199, 227, 212, 237, 261, 226, 242, 229, 227, 221, 211, 208, 177, 201, 194, 183, 157, 163, 142, 124, 142, 132, 118, 79, 82, 88, 57, 40, 9, 2, 0, 0, 0, 0, 0, 0, 0, 0, 0, 0, 0, 0, 0, 0, 0, 0, 0, 0, 0, 0, 0, 0, 0, 0, 0, 0, 0, 0, 0, 0, 0, 0, 0, 0, 0, 0, 0, 0, 0, 0, 0, 0, 0, 0, 0, 0, 0, 0, 0, 0, 0, 0, 0, 0, 0, 0, 0, 0, 0
0, 0, 31, 6, 1, 5, 24, 31, 38, 65, 126, 99, 104, 129, 159, 198, 208, 204, 243, 233, 236, 248, 236, 246, 245, 225, 261, 209, 246, 250, 213, 175, 162, 155, 166, 142, 147, 134, 129, 103, 91, 84, 66, 69, 47, 14, 3, 0, 0, 0, 0, 0, 0, 0, 0, 0, 0, 0, 0, 0, 0, 0, 0, 0, 0, 0, 0, 0, 0, 0, 0, 0, 0, 0, 0, 0, 0, 0, 0, 0, 0, 0, 0, 0, 0, 0, 0, 0, 0, 0, 0, 0, 0, 0, 0, 0, 0, 0, 0, 0, 0, 0, 0, 0, 0, 0
0, 0, 32, 1, 3, 11, 10, 23, 45, 53, 103, 102, 111, 162, 174, 182, 179, 225, 214, 252, 254, 256, 266, 234, 246, 259, 230, 234, 189, 215, 173, 179, 182, 169, 180, 146, 138, 126, 108, 91, 98, 89, 72, 54, 34, 20, 2, 0, 0, 0, 0, 0, 0, 0, 0, 0, 0, 0, 0, 0, 0, 0, 0, 0, 0, 0, 0, 0, 0, 0, 0, 0, 0, 0, 0, 0, 0, 0, 0, 0, 0, 0, 0, 0, 0, 0, 0, 0, 0, 0, 0, 0, 0, 0, 0, 0, 0, 0, 0, 0, 0, 0, 0, 0, 0, 0
0, 0, 33, 1, 4, 6, 19, 16, 48, 57, 104, 106, 111, 141, 166, 199, 199, 218, 193, 256, 246, 231, 230, 238, 239, 273, 221, 227, 201, 258, 190, 200, 193, 178, 187, 155, 141, 122, 112, 97, 95, 79, 68, 65, 41, 19, 1, 0, 0, 0, 0, 0, 0, 0, 0, 0, 0, 0, 0, 0, 0, 0, 0, 0, 0, 0, 0, 0, 0, 0, 0, 0, 0, 0, 0, 0, 0, 0, 0, 0, 0, 0, 0, 0, 0, 0, 0, 0, 0, 0, 0, 0, 0, 0, 0, 0, 0, 0, 0, 0, 0, 0, 0, 0, 0, 0
0, 0, 34, 0, 4, 7, 15, 30, 39, 52, 109, 77, 114, 141, 188, 168, 230, 266, 262, 232, 260, 244, 240, 213, 260, 225, 233, 229, 223, 219, 190, 195, 202, 161, 178, 133, 125, 123, 118, 96, 94, 78, 69, 57, 40, 22, 0, 0, 0, 0, 0, 0, 0, 0, 0, 0, 0, 0, 0, 0, 0, 0, 0, 0, 0, 0, 0, 0, 0, 0, 0, 0, 0, 0, 0, 0, 0, 0, 0, 0, 0, 0, 0, 0, 0, 0, 0, 0, 0, 0, 0, 0, 0, 0, 0, 0, 0, 0, 0, 0, 0, 0, 0, 0, 0, 0
0, 0, 35, 0, 5, 11, 14, 21, 38, 59, 123, 103, 117, 165, 167, 206, 186, 220, 203, 222, 225, 266, 237, 261, 229, 250, 233, 211, 211, 212, 179, 195, 183, 160, 159, 143, 116, 122, 120, 112, 84, 74, 65, 54, 41, 22, 1, 0, 0, 0, 0, 0, 0, 0, 0, 0, 0, 0, 0, 0, 0, 0, 0, 0, 0, 0, 0, 0, 0, 0, 0, 0, 0, 0, 0, 0, 0, 0, 0, 0, 0, 0, 0, 0, 0, 0, 0, 0, 0, 0, 0, 0, 0, 0, 0, 0, 0, 0, 0, 0, 0, 0, 0, 0, 0, 0
0, 0, 36, 2, 2, 9, 9, 34, 48, 49, 108, 78, 104, 163, 153, 180, 213, 196, 205, 247, 251, 264, 213, 272, 237, 230, 269, 218, 221, 187, 210, 205, 183, 182, 164, 159, 139, 141, 120, 117, 89, 106, 66, 52, 38, 19, 0, 0, 0, 0, 0, 0, 0, 0, 0, 0, 0, 0, 0, 0, 0, 0, 0, 0, 0, 0, 0, 0, 0, 0, 0, 0, 0, 0, 0, 0, 0, 0, 0, 0, 0, 0, 0, 0, 0, 0, 0, 0, 0, 0, 0, 0, 0, 0, 0, 0, 0, 0, 0, 0, 0, 0, 0, 0, 0, 0
0, 0, 37, 0, 1, 8, 15, 27, 36, 57, 122, 86, 125, 124, 163, 195, 191, 213, 242, 250, 263, 272, 240, 230, 248, 236, 220, 205, 239, 223, 194, 171, 181, 180, 138, 134, 139, 126, 123, 108, 101, 59, 84, 51, 60, 22, 1, 0, 0, 0, 0, 0, 0, 0, 0, 0, 0, 0, 0, 0, 0, 0, 0, 0, 0, 0, 0, 0, 0, 0, 0, 0, 0, 0, 0, 0, 0, 0, 0, 0, 0, 0, 0, 0, 0, 0, 0, 0, 0, 0, 0, 0, 0, 0, 0, 0, 0, 0, 0, 0, 0, 0, 0, 0, 0, 0
0, 0, 38, 3, 1, 4, 16, 16, 30, 65, 119, 91, 113, 142, 156, 231, 197, 232, 232, 266, 239, 243, 258, 281, 244, 260, 221, 221, 222, 210, 208, 186, 174, 167, 146, 147, 128, 124, 115, 111, 81, 91, 62, 64, 36, 19, 0, 0, 0, 0, 0, 0, 0, 0, 0, 0, 0, 0, 0, 0, 0, 0, 0, 0, 0, 0, 0, 0, 0, 0, 0, 0, 0, 0, 0, 0, 0, 0, 0, 0, 0, 0, 0, 0, 0, 0, 0, 0, 0, 0, 0, 0, 0, 0, 0, 0, 0, 0, 0, 0, 0, 0, 0, 0, 0, 0
0, 0, 39, 4, 4, 10, 18, 31, 32, 43, 109, 96, 100, 143, 161, 197, 216, 189, 220, 219, 214, 273, 272, 257, 263, 242, 243, 247, 248, 196, 205, 199, 150, 168, 178, 125, 128, 128, 120, 114, 90, 78, 66, 60, 38, 17, 2, 0, 0, 0, 0, 0, 0, 0, 0, 0, 0, 0, 0, 0, 0, 0, 0, 0, 0, 0, 0, 0, 0, 0, 0, 0, 0, 0, 0, 0, 0, 0, 0, 0, 0, 0, 0, 0, 0, 0, 0, 0, 0, 0, 0, 0, 0, 0, 0, 0, 0, 0, 0, 0, 0, 0, 0, 0, 0, 0
0, 0, 40, 1, 6, 7, 13, 20, 35, 57, 106, 84, 112, 142, 144, 202, 212, 197, 222, 239, 249, 218, 231, 254, 247, 260, 238, 237, 207, 241, 190, 192, 194, 155, 161, 149, 145, 109, 120, 99, 86, 65, 52, 53, 28, 14, 0, 0, 0, 0, 0, 0, 0, 0, 0, 0, 0, 0, 0, 0, 0, 0, 0, 0, 0, 0, 0, 0, 0, 0, 0, 0, 0, 0, 0, 0, 0, 0, 0, 0, 0, 0, 0, 0, 0, 0, 0, 0, 0, 0, 0, 0, 0, 0, 0, 0, 0, 0, 0, 0, 0, 0, 0, 0, 0, 0
0, 0, 41, 0, 1, 6, 12, 15, 35, 43, 93, 96, 122, 138, 168, 199, 171, 201, 212, 253, 231, 220, 220, 236, 227, 245, 229, 232, 196, 210, 190, 194, 155, 156, 145, 136, 124, 106, 108, 100, 91, 73, 62, 52, 47, 19, 1, 0, 0, 0, 0, 0, 0, 0, 0, 0, 0, 0, 0, 0, 0, 0, 0, 0, 0, 0, 0, 0, 0, 0, 0, 0, 0, 0, 0, 0, 0, 0, 0, 0, 0, 0, 0, 0, 0, 0, 0, 0, 0, 0, 0, 0, 0, 0, 0, 0, 0, 0, 0, 0, 0, 0, 0, 0, 0, 0
0, 0, 42, 0, 3, 4, 15, 17, 22, 40, 93, 73, 94, 120, 142, 146, 153, 177, 191, 210, 218, 199, 200, 160, 198, 165, 150, 207, 193, 157, 169, 160, 146, 150, 149, 116, 103, 93, 85, 63, 87, 66, 61, 33, 33, 14, 0, 0, 0, 0, 0, 0, 0, 0, 0, 0, 0, 0, 0, 0, 0, 0, 0, 0, 0, 0, 0, 0, 0, 0, 0, 0, 0, 0, 0, 0, 0, 0, 0, 0, 0, 0, 0, 0, 0, 0, 0, 0, 0, 0, 0, 0, 0, 0, 0, 0, 0, 0, 0, 0, 0, 0, 0, 0, 0, 0
0, 0, 43, 2, 2, 7, 8, 15, 22, 26, 57, 47, 62, 89, 113, 101, 124, 135, 120, 207, 182, 159, 173, 159, 145, 173, 148, 140, 154, 147, 154, 128, 136, 136, 134, 98, 96, 82, 91, 75, 54, 72, 51, 39, 31, 11, 0, 0, 0, 0, 0, 0, 0, 0, 0, 0, 0, 0, 0, 0, 0, 0, 0, 0, 0, 0, 0, 0, 0, 0, 0, 0, 0, 0, 0, 0, 0, 0, 0, 0, 0, 0, 0, 0, 0, 0, 0, 0, 0, 0, 0, 0, 0, 0, 0, 0, 0, 0, 0, 0, 0, 0, 0, 0, 0, 0
0, 0, 44, 0, 1, 1, 7, 8, 14, 27, 60, 37, 50, 58, 92, 100, 104, 96, 111, 112, 134, 140, 154, 137, 155, 141, 152, 141, 130, 120, 116, 116, 120, 92, 98, 84, 88, 80, 70, 79, 56, 48, 39, 33, 29, 12, 0, 0, 0, 0, 0, 0, 0, 0, 0, 0, 0, 0, 0, 0, 0, 0, 0, 0, 0, 0, 0, 0, 0, 0, 0, 0, 0, 0, 0, 0, 0, 0, 0, 0, 0, 0, 0, 0, 0, 0, 0, 0, 0, 0, 0, 0, 0, 0, 0, 0, 0, 0, 0, 0, 0, 0, 0, 0, 0, 0
0, 0, 45, 0, 0, 1, 1, 12, 11, 17, 50, 29, 33, 52, 59, 81, 78, 96, 111, 113, 103, 122, 143, 130, 127, 128, 127, 118, 135, 94, 116, 93, 111, 81, 95, 70, 71, 76, 81, 52, 52, 36, 35, 30, 21, 6, 0, 0, 0, 0, 0, 0, 0, 0, 0, 0, 0, 0, 0, 0, 0, 0, 0, 0, 0, 0, 0, 0, 0, 0, 0, 0, 0, 0, 0, 0, 0, 0, 0, 0, 0, 0, 0, 0, 0, 0, 0, 0, 0, 0, 0, 0, 0, 0, 0, 0, 0, 0, 0, 0, 0, 0, 0, 0, 0, 0
0, 0, 46, 0, 1, 1, 3, 8, 5, 8, 23, 23, 27, 58, 55, 50, 71, 64, 95, 88, 82, 105, 111, 106, 110, 112, 89, 90, 108, 102, 99, 74, 89, 73, 89, 78, 69, 69, 48, 53, 44, 49, 41, 27, 18, 5, 2, 0, 0, 0, 0, 0, 0, 0, 0, 0, 0, 0, 0, 0, 0, 0, 0, 0, 0, 0, 0, 0, 0, 0, 0, 0, 0, 0, 0, 0, 0, 0, 0, 0, 0, 0, 0, 0, 0, 0, 0, 0, 0, 0, 0, 0, 0, 0, 0, 0, 0, 0, 0, 0, 0, 0, 0, 0, 0, 0
0, 0, 47, 0, 2, 1, 1, 2, 9, 7, 25, 17, 34, 27, 45, 49, 48, 63, 82, 90, 81, 87, 81, 85, 120, 102, 103, 93, 77, 89, 80, 72, 75, 81, 72, 60, 57, 48, 55, 41, 62, 26, 27, 23, 17, 12, 2, 0, 0, 0, 0, 0, 0, 0, 0, 0, 0, 0, 0, 0, 0, 0, 0, 0, 0, 0, 0, 0, 0, 0, 0, 0, 0, 0, 0, 0, 0, 0, 0, 0, 0, 0, 0, 0, 0, 0, 0, 0, 0, 0, 0, 0, 0, 0, 0, 0, 0, 0, 0, 0, 0, 0, 0, 0, 0, 0
0, 0, 48, 0, 0, 0, 2, 2, 8, 14, 20, 17, 19, 24, 39, 53, 56, 56, 70, 71, 88, 81, 72, 86, 94, 87, 83, 63, 88, 85, 62, 75, 70, 67, 62, 77, 50, 59, 50, 40, 31, 33, 31, 21, 16, 7, 0, 0, 0, 0, 0, 0, 0, 0, 0, 0, 0, 0, 0, 0, 0, 0, 0, 0, 0, 0, 0, 0, 0, 0, 0, 0, 0, 0, 0, 0, 0, 0, 0, 0, 0, 0, 0, 0, 0, 0, 0, 0, 0, 0, 0, 0, 0, 0, 0, 0, 0, 0, 0, 0, 0, 0, 0, 0, 0, 0
0, 0, 49, 1, 0, 0, 2, 0, 1, 5, 26, 15, 10, 22, 42, 45, 45, 48, 54, 63, 67, 79, 81, 70, 79, 68, 68, 93, 70, 85, 65, 69, 81, 63, 56, 60, 68, 58, 45, 54, 36, 36, 32, 25, 19, 12, 0, 0, 0, 0, 0, 0, 0, 0, 0, 0, 0, 0, 0, 0, 0, 0, 0, 0, 0, 0, 0, 0, 0, 0, 0, 0, 0, 0, 0, 0, 0, 0, 0, 0, 0, 0, 0, 0, 0, 0, 0, 0, 0, 0, 0, 0, 0, 0, 0, 0, 0, 0, 0, 0, 0, 0, 0, 0, 0, 0
0, 0, 50, 2, 0, 0, 0, 0, 2, 4, 21, 7, 16, 34, 20, 45, 53, 59, 57, 74, 76, 60, 75, 71, 79, 88, 92, 79, 90, 65, 64, 59, 62, 63, 53, 69, 65, 47, 54, 34, 42, 33, 26, 30, 18, 19, 1, 0, 0, 0, 0, 0, 0, 0, 0, 0, 0, 0, 0, 0, 0, 0, 0, 0, 0, 0, 0, 0, 0, 0, 0, 0, 0, 0, 0, 0, 0, 0, 0, 0, 0, 0, 0, 0, 0, 0, 0, 0, 0, 0, 0, 0, 0, 0, 0, 0, 0, 0, 0, 0, 0, 0, 0, 0, 0, 0
0, 0, 51, 0, 0, 0, 0, 1, 4, 9, 21, 7, 22, 31, 36, 60, 64, 54, 53, 87, 70, 83, 87, 97, 80, 80, 94, 74, 73, 82, 88, 70, 74, 79, 62, 67, 54, 75, 51, 33, 49, 43, 40, 27, 13, 21, 0, 0, 0, 0, 0, 0, 0, 0, 0, 0, 0, 0, 0, 0, 0, 0, 0, 0, 0, 0, 0, 0, 0, 0, 0, 0, 0, 0, 0, 0, 0, 0, 0, 0, 0, 0, 0, 0, 0, 0, 0, 0, 0, 0, 0, 0, 0, 0, 0, 0, 0, 0, 0, 0, 0, 0, 0, 0, 0, 0
0, 0, 52, 0, 0, 1, 0, 3, 1, 6, 35, 24, 24, 33, 56, 48, 51, 67, 69, 100, 92, 90, 100, 104, 98, 120, 79, 94, 75, 98, 80, 78, 66, 76, 62, 67, 64, 63, 43, 45, 39, 42, 31, 23, 20, 11, 0, 0, 0, 0, 0, 0, 0, 0, 0, 0, 0, 0, 0, 0, 0, 0, 0, 0, 0, 0, 0, 0, 0, 0, 0, 0, 0, 0, 0, 0, 0, 0, 0, 0, 0, 0, 0, 0, 0, 0, 0, 0, 0, 0, 0, 0, 0, 0, 0, 0, 0, 0, 0, 0, 0, 0, 0, 0, 0, 0
0, 0, 53, 0, 2, 0, 2, 6, 4, 14, 27, 29, 31, 35, 55, 68, 72, 73, 68, 94, 83, 105, 112, 102, 107, 102, 90, 108, 103, 110, 108, 107, 93, 63, 74, 54, 67, 62, 60, 58, 52, 54, 35, 31, 27, 14, 1, 0, 0, 0, 0, 0, 0, 0, 0, 0, 0, 0, 0, 0, 0, 0, 0, 0, 0, 0, 0, 0, 0, 0, 0, 0, 0, 0, 0, 0, 0, 0, 0, 0, 0, 0, 0, 0, 0, 0, 0, 0, 0, 0, 0, 0, 0, 0, 0, 0, 0, 0, 0, 0, 0, 0, 0, 0, 0, 0
0, 0, 54, 2, 3, 2, 2, 5, 21, 26, 37, 36, 38, 50, 66, 69, 86, 86, 90, 108, 123, 101, 106, 117, 130, 125, 123, 127, 116, 113, 87, 91, 98, 98, 85, 101, 86, 79, 69, 65, 46, 42, 32, 31, 18, 13, 1, 0, 0, 0, 0, 0, 0, 0, 0, 0, 0, 0, 0, 0, 0, 0, 0, 0, 0, 0, 0, 0, 0, 0, 0, 0, 0, 0, 0, 0, 0, 0, 0, 0, 0, 0, 0, 0, 0, 0, 0, 0, 0, 0, 0, 0, 0, 0, 0, 0, 0, 0, 0, 0, 0, 0, 0, 0, 0, 0
0, 0, 55, 0, 3, 1, 5, 17, 15, 20, 44, 43, 57, 78, 96, 113, 104, 102, 106, 131, 149, 119, 166, 150, 123, 144, 147, 143, 151, 123, 122, 128, 106, 115, 100, 102, 101, 83, 96, 55, 52, 43, 47, 39, 29, 9, 0, 0, 0, 0, 0, 0, 0, 0, 0, 0, 0, 0, 0, 0, 0, 0, 0, 0, 0, 0, 0, 0, 0, 0, 0, 0, 0, 0, 0, 0, 0, 0, 0, 0, 0, 0, 0, 0, 0, 0, 0, 0, 0, 0, 0, 0, 0, 0, 0, 0, 0, 0, 0, 0, 0, 0, 0, 0, 0, 0
0, 0, 56, 1, 0, 5, 9, 14, 21, 25, 76, 57, 61, 76, 101, 120, 140, 147, 146, 158, 169, 174, 175, 170, 169, 156, 157, 165, 136, 158, 155, 134, 137, 118, 103, 106, 89, 88, 102, 85, 82, 54, 49, 43, 42, 16, 0, 0, 0, 0, 0, 0, 0, 0, 0, 0, 0, 0, 0, 0, 0, 0, 0, 0, 0, 0, 0, 0, 0, 0, 0, 0, 0, 0, 0, 0, 0, 0, 0, 0, 0, 0, 0, 0, 0, 0, 0, 0, 0, 0, 0, 0, 0, 0, 0, 0, 0, 0, 0, 0, 0, 0, 0, 0, 0, 0
0, 0, 57, 1, 5, 5, 9, 22, 36, 39, 83, 79, 82, 111, 139, 159, 130, 181, 168, 203, 209, 213, 167, 202, 204, 200, 199, 167, 189, 176, 170, 146, 159, 136, 120, 126, 112, 113, 98, 75, 80, 70, 56, 42, 32, 17, 1, 0, 0, 0, 0, 0, 0, 0, 0, 0, 0, 0, 0, 0, 0, 0, 0, 0, 0, 0, 0, 0, 0, 0, 0, 0, 0, 0, 0, 0, 0, 0, 0, 0, 0, 0, 0, 0, 0, 0, 0, 0, 0, 0, 0, 0, 0, 0, 0, 0, 0, 0, 0, 0, 0, 0, 0, 0, 0, 0
0, 0, 58, 1, 1, 7, 14, 20, 34, 51, 104, 79, 101, 145, 155, 195, 188, 202, 209, 198, 254, 229, 253, 219, 220, 224, 212, 208, 217, 209, 165, 168, 179, 161, 163, 141, 117, 114, 102, 83, 95, 65, 66, 60, 32, 34, 1, 0, 0, 0, 0, 0, 0, 0, 0, 0, 0, 0, 0, 0, 0, 0, 0, 0, 0, 0, 0, 0, 0, 0, 0, 0, 0, 0, 0, 0, 0, 0, 0, 0, 0, 0, 0, 0, 0, 0, 0, 0, 0, 0, 0, 0, 0, 0, 0, 0, 0, 0, 0, 0, 0, 0, 0, 0, 0, 0
0, 0, 59, 0, 2, 5, 16, 27, 38, 53, 106, 110, 115, 136, 183, 185, 208, 215, 220, 264, 233, 235, 261, 237, 249, 267, 235, 224, 217, 216, 190, 174, 171, 178, 183, 134, 148, 101, 115, 97, 88, 77, 55, 61, 45, 20, 0, 0, 0, 0, 0, 0, 0, 0, 0, 0, 0, 0, 0, 0, 0, 0, 0, 0, 0, 0, 0, 0, 0, 0, 0, 0, 0, 0, 0, 0, 0, 0, 0, 0, 0, 0, 0, 0, 0, 0, 0, 0, 0, 0, 0, 0, 0, 0, 0, 0, 0, 0, 0, 0, 0, 0, 0, 0, 0, 0
0, 0, 60, 4, 1, 4, 19, 25, 49, 42, 101, 79, 130, 138, 158, 189, 196, 193, 238, 255, 257, 200, 263, 258, 234, 243, 208, 211, 228, 220, 222, 198, 195, 159, 153, 145, 133, 129, 107, 123, 101, 83, 64, 50, 36, 15, 0, 0, 0, 0, 0, 0, 0, 0, 0, 0, 0, 0, 0, 0, 0, 0, 0, 0, 0, 0, 0, 0, 0, 0, 0, 0, 0, 0, 0, 0, 0, 0, 0, 0, 0, 0, 0, 0, 0, 0, 0, 0, 0, 0, 0, 0, 0, 0, 0, 0, 0, 0, 0, 0, 0, 0, 0, 0, 0, 0
0, 0, 61, 0, 3, 6, 22, 29, 42, 53, 129, 92, 104, 169, 187, 171, 203, 223, 221, 216, 254, 247, 239, 242, 222, 260, 224, 232, 258, 212, 196, 206, 193, 158, 144, 161, 126, 113, 123, 124, 81, 65, 49, 57, 43, 14, 1, 0, 0, 0, 0, 0, 0, 0, 0, 0, 0, 0, 0, 0, 0, 0, 0, 0, 0, 0, 0, 0, 0, 0, 0, 0, 0, 0, 0, 0, 0, 0, 0, 0, 0, 0, 0, 0, 0, 0, 0, 0, 0, 0, 0, 0, 0, 0, 0, 0, 0, 0, 0, 0, 0, 0, 0, 0, 0, 0
0, 0, 62, 3, 3, 9, 14, 24, 31, 59, 133, 102, 103, 154, 179, 191, 208, 215, 223, 260, 239, 256, 268, 258, 264, 245, 243, 243, 238, 208, 197, 220, 183, 175, 163, 147, 124, 126, 135, 112, 91, 83, 59, 45, 41, 20, 0, 0, 0, 0, 0, 0, 0, 0, 0, 0, 0, 0, 0, 0, 0, 0, 0, 0, 0, 0, 0, 0, 0, 0, 0, 0, 0, 0, 0, 0, 0, 0, 0, 0, 0, 0, 0, 0, 0, 0, 0, 0, 0, 0, 0, 0, 0, 0, 0, 0, 0, 0, 0, 0, 0, 0, 0, 0, 0, 0
0, 0, 63, 3, 6, 8, 16, 22, 32, 38, 127, 98, 109, 140, 181, 183, 191, 204, 236, 237, 218, 229, 254, 272, 272, 248, 235, 186, 213, 235, 196, 183, 203, 150, 137, 127, 136, 119, 128, 100, 99, 101, 81, 60, 39, 19, 4, 0, 0, 0, 0, 0, 0, 0, 0, 0, 0, 0, 0, 0, 0, 0, 0, 0, 0, 0, 0, 0, 0, 0, 0, 0, 0, 0, 0, 0, 0, 0, 0, 0, 0, 0, 0, 0, 0, 0, 0, 0, 0, 0, 0, 0, 0, 0, 0, 0, 0, 0, 0, 0, 0, 0, 0, 0, 0, 0
0, 0, 64, 0, 4, 7, 12, 25, 40, 64, 102, 101, 139, 154, 164, 187, 194, 201, 212, 226, 256, 240, 268, 254, 210, 241, 261, 240, 213, 190, 217, 213, 169, 187, 162, 148, 126, 125, 111, 105, 94, 85, 78, 42, 49, 17, 1, 0, 0, 0, 0, 0, 0, 0, 0, 0, 0, 0, 0, 0, 0, 0, 0, 0, 0, 0, 0, 0, 0, 0, 0, 0, 0, 0, 0, 0, 0, 0, 0, 0, 0, 0, 0, 0, 0, 0, 0, 0, 0, 0, 0, 0, 0, 0, 0, 0, 0, 0, 0, 0, 0, 0, 0, 0, 0, 0
0, 0, 65, 4, 2, 6, 22, 24, 33, 47, 119, 108, 109, 144, 176, 229, 203, 210, 199, 273, 267, 258, 257, 276, 230, 240, 221, 205, 225, 262, 228, 192, 180, 167, 168, 134, 143, 122, 101, 104, 100, 77, 73, 59, 47, 18, 3, 0, 0, 0, 0, 0, 0, 0, 0, 0, 0, 0, 0, 0, 0, 0, 0, 0, 0, 0, 0, 0, 0, 0, 0, 0, 0, 0, 0, 0, 0, 0, 0, 0, 0, 0, 0, 0, 0, 0, 0, 0, 0, 0, 0, 0, 0, 0, 0, 0, 0, 0, 0, 0, 0, 0, 0, 0, 0, 0
0, 0, 66, 0, 2, 12, 10, 26, 34, 49, 121, 103, 102, 154, 175, 186, 240, 211, 215, 226, 268, 220, 236, 220, 267, 242, 221, 260, 208, 203, 187, 200, 153, 180, 164, 141, 144, 113, 138, 107, 102, 89, 55, 52, 39, 24, 3, 0, 0, 0, 0, 0, 0, 0, 0, 0, 0, 0, 0, 0, 0, 0, 0, 0, 0, 0, 0, 0, 0, 0, 0, 0, 0, 0, 0, 0, 0, 0, 0, 0, 0, 0, 0, 0, 0, 0, 0, 0, 0, 0, 0, 0, 0, 0, 0, 0, 0, 0, 0, 0, 0, 0, 0, 0, 0, 0
0, 0, 67, 0, 7, 12, 8, 25, 37, 54, 138, 87, 114, 137, 176, 230, 193, 201, 237, 244, 258, 239, 241, 261, 279, 257, 251, 214, 231, 178, 200, 203, 155, 172, 166, 155, 135, 158, 107, 102, 85, 78, 59, 50, 46, 28, 2, 0, 0, 0, 0, 0, 0, 0, 0, 0, 0, 0, 0, 0, 0, 0, 0, 0, 0, 0, 0, 0, 0, 0, 0, 0, 0, 0, 0, 0, 0, 0, 0, 0, 0, 0, 0, 0, 0, 0, 0, 0, 0, 0, 0, 0, 0, 0, 0, 0, 0, 0, 0, 0, 0, 0, 0, 0, 0, 0
0, 0, 68, 2, 5, 14, 19, 20, 46, 49, 108, 103, 127, 156, 176, 223, 175, 210, 228, 226, 273, 262, 252, 264, 228, 254, 246, 243, 219, 197, 206, 178, 172, 181, 172, 172, 140, 139, 97, 94, 85, 77, 84, 49, 35, 15, 1, 0, 0, 0, 0, 0, 0, 0, 0, 0, 0, 0, 0, 0, 0, 0, 0, 0, 0, 0, 0, 0, 0, 0, 0, 0, 0, 0, 0, 0, 0, 0, 0, 0, 0, 0, 0, 0, 0, 0, 0, 0, 0, 0, 0, 0, 0, 0, 0, 0, 0, 0, 0, 0, 0, 0, 0, 0, 0, 0
0, 0, 69, 2, 4, 13, 12, 21, 54, 53, 116, 81, 126, 120, 170, 203, 189, 229, 218, 255, 268, 262, 258, 223, 233, 215, 216, 234, 206, 253, 198, 195, 186, 167, 153, 153, 135, 123, 129, 87, 89, 85, 78, 44, 40, 13, 3, 0, 0, 0, 0, 0, 0, 0, 0, 0, 0, 0, 0, 0, 0, 0, 0, 0, 0, 0, 0, 0, 0, 0, 0, 0, 0, 0, 0, 0, 0, 0, 0, 0, 0, 0, 0, 0, 0, 0, 0, 0, 0, 0, 0, 0, 0, 0, 0, 0, 0, 0, 0, 0, 0, 0, 0, 0, 0, 0
0, 0, 70, 3, 2, 8, 15, 24, 26, 44, 112, 95, 111, 142, 180, 220, 206, 213, 265, 229, 240, 265, 264, 264, 242, 253, 257, 206, 225, 233, 247, 174, 192, 163, 163, 145, 126, 115, 109, 103, 85, 86, 55, 55, 39, 20, 1, 0, 0, 0, 0, 0, 0, 0, 0, 0, 0, 0, 0, 0, 0, 0, 0, 0, 0, 0, 0, 0, 0, 0, 0, 0, 0, 0, 0, 0, 0, 0, 0, 0, 0, 0, 0, 0, 0, 0, 0, 0, 0, 0, 0, 0, 0, 0, 0, 0, 0, 0, 0, 0, 0, 0, 0, 0, 0, 0
0, 0, 71, 4, 3, 3, 15, 19, 53, 53, 111, 98, 151, 161, 172, 201, 190, 206, 188, 230, 254, 245, 260, 247, 234, 247, 211, 232, 223, 209, 201, 193, 174, 182, 167, 134, 128, 137, 120, 95, 106, 81, 68, 40, 59, 20, 3, 0, 0, 0, 0, 0, 0, 0, 0, 0, 0, 0, 0, 0, 0, 0, 0, 0, 0, 0, 0, 0, 0, 0, 0, 0, 0, 0, 0, 0, 0, 0, 0, 0, 0, 0, 0, 0, 0, 0, 0, 0, 0, 0, 0, 0, 0, 0, 0, 0, 0, 0, 0, 0, 0, 0, 0, 0, 0, 0
0, 0, 72, 9, 1, 9, 9, 25, 41, 52, 114, 108, 101, 143, 178, 215, 185, 202, 223, 260, 244, 269, 235, 235, 250, 259, 238, 243, 221, 205, 187, 228, 165, 165, 158, 146, 153, 137, 93, 93, 88, 76, 77, 59, 44, 17, 0, 0, 0, 0, 0, 0, 0, 0, 0, 0, 0, 0, 0, 0, 0, 0, 0, 0, 0, 0, 0, 0, 0, 0, 0, 0, 0, 0, 0, 0, 0, 0, 0, 0, 0, 0, 0, 0, 0, 0, 0, 0, 0, 0, 0, 0, 0, 0, 0, 0, 0, 0, 0, 0, 0, 0, 0, 0, 0, 0
0, 0, 73, 3, 4, 8, 21, 28, 38, 60, 116, 85, 112, 141, 204, 209, 206, 223, 243, 223, 228, 233, 244, 256, 246, 240, 248, 223, 212, 204, 227, 193, 182, 183, 163, 162, 125, 109, 149, 128, 93, 72, 68, 62, 44, 21, 0, 0, 0, 0, 0, 0, 0, 0, 0, 0, 0, 0, 0, 0, 0, 0, 0, 0, 0, 0, 0, 0, 0, 0, 0, 0, 0, 0, 0, 0, 0, 0, 0, 0, 0, 0, 0, 0, 0, 0, 0, 0, 0, 0, 0, 0, 0, 0, 0, 0, 0, 0, 0, 0, 0, 0, 0, 0, 0, 0
0, 0, 74, 3, 0, 11, 14, 28, 44, 69, 100, 114, 103, 125, 173, 196, 176, 203, 241, 260, 283, 243, 245, 246, 261, 243, 246, 210, 224, 196, 198, 197, 166, 181, 160, 141, 135, 124, 129, 95, 111, 91, 71, 71, 48, 30, 0, 0, 0, 0, 0, 0, 0, 0, 0, 0, 0, 0, 0, 0, 0, 0, 0, 0, 0, 0, 0, 0, 0, 0, 0, 0, 0, 0, 0, 0, 0, 0, 0, 0, 0, 0, 0, 0, 0, 0, 0, 0, 0, 0, 0, 0, 0, 0, 0, 0, 0, 0, 0, 0, 0, 0, 0, 0, 0, 0
0, 0, 75, 2, 5, 6, 18, 27, 42, 49, 106, 98, 113, 114, 202, 186, 234, 193, 217, 224, 275, 245, 231, 258, 289, 248, 215, 237, 216, 218, 211, 226, 186, 173, 147, 182, 147, 150, 123, 93, 96, 69, 80, 41, 46, 17, 1, 0, 0, 0, 0, 0, 0, 0, 0, 0, 0, 0, 0, 0, 0, 0, 0, 0, 0, 0, 0, 0, 0, 0, 0, 0, 0, 0, 0, 0, 0, 0, 0, 0, 0, 0, 0, 0, 0, 0, 0, 0, 0, 0, 0, 0, 0, 0, 0, 0, 0, 0, 0, 0, 0, 0, 0, 0, 0, 0
0, 0, 76, 4, 8, 4, 18, 28, 30, 56, 125, 101, 99, 144, 176, 190, 213, 198, 210, 219, 232, 277, 266, 243, 232, 259, 200, 217, 231, 204, 195, 184, 203, 140, 151, 133, 129, 131, 94, 108, 86, 76, 77, 52, 51, 17, 6, 0, 0, 0, 0, 0, 0, 0, 0, 0, 0, 0, 0, 0, 0, 0, 0, 0, 0, 0, 0, 0, 0, 0, 0, 0, 0, 0, 0, 0, 0, 0, 0, 0, 0, 0, 0, 0, 0, 0, 0, 0, 0, 0, 0, 0, 0, 0, 0, 0, 0, 0, 0, 0, 0, 0, 0, 0, 0, 0
0, 0, 77, 0, 1, 6, 18, 26, 35, 56, 128, 85, 130, 180, 173, 232, 203, 213, 264, 257, 249, 256, 235, 238, 219, 241, 240, 203, 204, 205, 193, 176, 214, 161, 159, 158, 145, 113, 109, 112, 72, 80, 63, 59, 39, 19, 1, 0, 0, 0, 0, 0, 0, 0, 0, 0, 0, 0, 0, 0, 0, 0, 0, 0, 0, 0, 0, 0, 0, 0, 0, 0, 0, 0, 0, 0, 0, 0, 0, 0, 0, 0, 0, 0, 0, 0, 0, 0, 0, 0, 0, 0, 0, 0, 0, 0, 0, 0, 0, 0, 0, 0, 0, 0, 0, 0
