# TOPAS Version: 3.1.p3
# Parameter File: REDLEN_small_phantom_mc_basic_4cm.txt
# Results for scorer PhantomDose
# Scored on surface: CdTeCrystal1/YPlusSurface
# X in 100 bins of 0.03332 cm
# Y in 1 bin  of 0.4 cm
# Z in 100 bins of 0.0375 cm
# SurfaceTrackCount : Sum   
# Binned by incident track energy in 100 bins of 0.00104 MeV from 0.016 MeV to 0.12 MeV
# First bin is underflow, next to last bin is overflow, last bin is for case of no incident track.
0, 0, 0, 1, 2, 0, 0, 0, 0, 0, 1, 0, 1, 0, 2, 0, 1, 1, 1, 3, 2, 1, 1, 1, 1, 2, 3, 3, 4, 1, 1, 3, 1, 1, 3, 2, 2, 3, 0, 0, 0, 0, 2, 1, 1, 0, 0, 0, 0, 0, 0, 0, 0, 0, 0, 0, 0, 0, 0, 0, 0, 0, 0, 0, 0, 0, 0, 0, 0, 0, 0, 0, 0, 0, 0, 0, 0, 0, 0, 0, 0, 0, 0, 0, 0, 0, 0, 0, 0, 0, 0, 0, 0, 0, 0, 0, 0, 0, 0, 0, 0, 0, 0, 0, 0, 0
0, 0, 1, 0, 0, 0, 0, 0, 0, 0, 0, 0, 0, 1, 0, 1, 1, 2, 1, 11, 3, 1, 2, 5, 1, 2, 1, 1, 5, 3, 6, 3, 3, 2, 3, 0, 1, 3, 0, 1, 1, 1, 0, 0, 0, 0, 0, 0, 0, 0, 0, 0, 0, 0, 0, 0, 0, 0, 0, 0, 0, 0, 0, 0, 0, 0, 0, 0, 0, 0, 0, 0, 0, 0, 0, 0, 0, 0, 0, 0, 0, 0, 0, 0, 0, 0, 0, 0, 0, 0, 0, 0, 0, 0, 0, 0, 0, 0, 0, 0, 0, 0, 0, 0, 0, 0
0, 0, 2, 0, 0, 0, 0, 0, 0, 0, 1, 0, 0, 1, 2, 2, 2, 0, 2, 3, 2, 3, 1, 3, 1, 0, 4, 1, 3, 0, 4, 3, 3, 0, 1, 8, 3, 0, 1, 0, 0, 0, 1, 0, 1, 2, 0, 0, 0, 0, 0, 0, 0, 0, 0, 0, 0, 0, 0, 0, 0, 0, 0, 0, 0, 0, 0, 0, 0, 0, 0, 0, 0, 0, 0, 0, 0, 0, 0, 0, 0, 0, 0, 0, 0, 0, 0, 0, 0, 0, 0, 0, 0, 0, 0, 0, 0, 0, 0, 0, 0, 0, 0, 0, 0, 0
0, 0, 3, 0, 0, 0, 0, 0, 0, 1, 0, 0, 0, 1, 2, 0, 3, 0, 0, 1, 2, 8, 0, 3, 4, 3, 3, 1, 1, 1, 1, 5, 2, 2, 1, 0, 4, 1, 1, 0, 1, 1, 1, 1, 1, 0, 0, 0, 0, 0, 0, 0, 0, 0, 0, 0, 0, 0, 0, 0, 0, 0, 0, 0, 0, 0, 0, 0, 0, 0, 0, 0, 0, 0, 0, 0, 0, 0, 0, 0, 0, 0, 0, 0, 0, 0, 0, 0, 0, 0, 0, 0, 0, 0, 0, 0, 0, 0, 0, 0, 0, 0, 0, 0, 0, 0
0, 0, 4, 2, 0, 0, 0, 0, 0, 0, 2, 0, 3, 2, 0, 2, 1, 4, 3, 2, 5, 0, 5, 3, 1, 2, 2, 6, 4, 5, 1, 1, 2, 1, 2, 3, 3, 0, 1, 2, 0, 1, 1, 0, 0, 0, 0, 0, 0, 0, 0, 0, 0, 0, 0, 0, 0, 0, 0, 0, 0, 0, 0, 0, 0, 0, 0, 0, 0, 0, 0, 0, 0, 0, 0, 0, 0, 0, 0, 0, 0, 0, 0, 0, 0, 0, 0, 0, 0, 0, 0, 0, 0, 0, 0, 0, 0, 0, 0, 0, 0, 0, 0, 0, 0, 0
0, 0, 5, 0, 5, 1, 8, 12, 20, 22, 64, 43, 55, 77, 82, 102, 91, 112, 95, 90, 122, 114, 111, 133, 124, 107, 95, 110, 92, 98, 74, 80, 69, 67, 73, 67, 66, 66, 43, 44, 45, 41, 36, 28, 16, 7, 0, 0, 0, 0, 0, 0, 0, 0, 0, 0, 0, 0, 0, 0, 0, 0, 0, 0, 0, 0, 0, 0, 0, 0, 0, 0, 0, 0, 0, 0, 0, 0, 0, 0, 0, 0, 0, 0, 0, 0, 0, 0, 0, 0, 0, 0, 0, 0, 0, 0, 0, 0, 0, 0, 0, 0, 0, 0, 0, 0
0, 0, 6, 4, 4, 8, 13, 23, 43, 67, 114, 90, 122, 133, 153, 202, 200, 225, 240, 253, 237, 225, 271, 248, 260, 212, 252, 223, 194, 179, 192, 203, 182, 160, 144, 139, 114, 133, 110, 122, 67, 76, 67, 57, 57, 22, 0, 0, 0, 0, 0, 0, 0, 0, 0, 0, 0, 0, 0, 0, 0, 0, 0, 0, 0, 0, 0, 0, 0, 0, 0, 0, 0, 0, 0, 0, 0, 0, 0, 0, 0, 0, 0, 0, 0, 0, 0, 0, 0, 0, 0, 0, 0, 0, 0, 0, 0, 0, 0, 0, 0, 0, 0, 0, 0, 0
0, 0, 7, 4, 1, 3, 11, 27, 39, 55, 132, 100, 112, 150, 180, 176, 195, 202, 205, 258, 277, 290, 260, 261, 238, 243, 243, 203, 230, 181, 184, 174, 182, 142, 169, 153, 141, 116, 112, 95, 101, 94, 56, 49, 45, 19, 0, 0, 0, 0, 0, 0, 0, 0, 0, 0, 0, 0, 0, 0, 0, 0, 0, 0, 0, 0, 0, 0, 0, 0, 0, 0, 0, 0, 0, 0, 0, 0, 0, 0, 0, 0, 0, 0, 0, 0, 0, 0, 0, 0, 0, 0, 0, 0, 0, 0, 0, 0, 0, 0, 0, 0, 0, 0, 0, 0
0, 0, 8, 3, 1, 13, 13, 26, 51, 44, 128, 95, 102, 131, 183, 223, 226, 196, 221, 269, 241, 239, 237, 236, 236, 229, 253, 229, 212, 211, 212, 189, 170, 165, 175, 162, 120, 128, 96, 122, 86, 79, 67, 42, 53, 21, 2, 0, 0, 0, 0, 0, 0, 0, 0, 0, 0, 0, 0, 0, 0, 0, 0, 0, 0, 0, 0, 0, 0, 0, 0, 0, 0, 0, 0, 0, 0, 0, 0, 0, 0, 0, 0, 0, 0, 0, 0, 0, 0, 0, 0, 0, 0, 0, 0, 0, 0, 0, 0, 0, 0, 0, 0, 0, 0, 0
0, 0, 9, 5, 4, 4, 14, 21, 46, 55, 117, 86, 108, 148, 173, 197, 210, 198, 216, 278, 255, 233, 272, 243, 239, 267, 231, 227, 208, 236, 214, 199, 185, 183, 172, 160, 140, 145, 104, 92, 103, 70, 78, 58, 39, 16, 3, 0, 0, 0, 0, 0, 0, 0, 0, 0, 0, 0, 0, 0, 0, 0, 0, 0, 0, 0, 0, 0, 0, 0, 0, 0, 0, 0, 0, 0, 0, 0, 0, 0, 0, 0, 0, 0, 0, 0, 0, 0, 0, 0, 0, 0, 0, 0, 0, 0, 0, 0, 0, 0, 0, 0, 0, 0, 0, 0
0, 0, 10, 7, 0, 5, 21, 24, 37, 35, 107, 76, 120, 151, 186, 178, 237, 215, 208, 213, 266, 243, 257, 238, 240, 216, 245, 221, 225, 225, 182, 205, 164, 165, 160, 118, 144, 119, 111, 92, 98, 76, 101, 46, 33, 21, 3, 0, 0, 0, 0, 0, 0, 0, 0, 0, 0, 0, 0, 0, 0, 0, 0, 0, 0, 0, 0, 0, 0, 0, 0, 0, 0, 0, 0, 0, 0, 0, 0, 0, 0, 0, 0, 0, 0, 0, 0, 0, 0, 0, 0, 0, 0, 0, 0, 0, 0, 0, 0, 0, 0, 0, 0, 0, 0, 0
0, 0, 11, 6, 7, 5, 13, 31, 35, 56, 110, 99, 114, 151, 166, 201, 200, 257, 214, 227, 227, 222, 270, 249, 239, 262, 196, 210, 224, 218, 225, 212, 199, 129, 154, 142, 148, 126, 124, 111, 102, 77, 66, 43, 44, 21, 3, 0, 0, 0, 0, 0, 0, 0, 0, 0, 0, 0, 0, 0, 0, 0, 0, 0, 0, 0, 0, 0, 0, 0, 0, 0, 0, 0, 0, 0, 0, 0, 0, 0, 0, 0, 0, 0, 0, 0, 0, 0, 0, 0, 0, 0, 0, 0, 0, 0, 0, 0, 0, 0, 0, 0, 0, 0, 0, 0
0, 0, 12, 2, 5, 9, 12, 30, 36, 59, 123, 90, 116, 161, 188, 177, 222, 234, 232, 257, 255, 264, 255, 234, 252, 253, 242, 220, 180, 228, 210, 183, 189, 167, 154, 167, 122, 126, 121, 115, 101, 85, 77, 63, 39, 18, 1, 0, 0, 0, 0, 0, 0, 0, 0, 0, 0, 0, 0, 0, 0, 0, 0, 0, 0, 0, 0, 0, 0, 0, 0, 0, 0, 0, 0, 0, 0, 0, 0, 0, 0, 0, 0, 0, 0, 0, 0, 0, 0, 0, 0, 0, 0, 0, 0, 0, 0, 0, 0, 0, 0, 0, 0, 0, 0, 0
0, 0, 13, 1, 5, 8, 12, 30, 38, 52, 120, 90, 105, 146, 166, 184, 213, 225, 203, 238, 239, 225, 215, 268, 244, 221, 206, 217, 224, 213, 201, 209, 176, 161, 165, 156, 122, 125, 132, 87, 96, 83, 70, 55, 50, 29, 1, 0, 0, 0, 0, 0, 0, 0, 0, 0, 0, 0, 0, 0, 0, 0, 0, 0, 0, 0, 0, 0, 0, 0, 0, 0, 0, 0, 0, 0, 0, 0, 0, 0, 0, 0, 0, 0, 0, 0, 0, 0, 0, 0, 0, 0, 0, 0, 0, 0, 0, 0, 0, 0, 0, 0, 0, 0, 0, 0
0, 0, 14, 3, 5, 7, 16, 26, 43, 56, 93, 91, 100, 157, 182, 193, 209, 243, 224, 229, 213, 258, 233, 249, 254, 244, 205, 227, 249, 227, 191, 162, 172, 158, 149, 140, 153, 113, 109, 108, 87, 76, 66, 59, 39, 23, 3, 0, 0, 0, 0, 0, 0, 0, 0, 0, 0, 0, 0, 0, 0, 0, 0, 0, 0, 0, 0, 0, 0, 0, 0, 0, 0, 0, 0, 0, 0, 0, 0, 0, 0, 0, 0, 0, 0, 0, 0, 0, 0, 0, 0, 0, 0, 0, 0, 0, 0, 0, 0, 0, 0, 0, 0, 0, 0, 0
0, 0, 15, 4, 5, 12, 18, 25, 36, 50, 124, 84, 115, 160, 208, 216, 187, 223, 256, 229, 262, 268, 233, 259, 290, 246, 200, 242, 243, 235, 198, 163, 182, 169, 155, 168, 158, 140, 137, 84, 111, 81, 63, 44, 36, 18, 1, 0, 0, 0, 0, 0, 0, 0, 0, 0, 0, 0, 0, 0, 0, 0, 0, 0, 0, 0, 0, 0, 0, 0, 0, 0, 0, 0, 0, 0, 0, 0, 0, 0, 0, 0, 0, 0, 0, 0, 0, 0, 0, 0, 0, 0, 0, 0, 0, 0, 0, 0, 0, 0, 0, 0, 0, 0, 0, 0
0, 0, 16, 4, 5, 4, 13, 26, 44, 58, 113, 93, 125, 171, 178, 177, 204, 218, 227, 207, 236, 252, 275, 262, 249, 248, 223, 204, 235, 228, 199, 203, 169, 166, 179, 150, 162, 134, 112, 101, 88, 76, 75, 59, 53, 27, 1, 0, 0, 0, 0, 0, 0, 0, 0, 0, 0, 0, 0, 0, 0, 0, 0, 0, 0, 0, 0, 0, 0, 0, 0, 0, 0, 0, 0, 0, 0, 0, 0, 0, 0, 0, 0, 0, 0, 0, 0, 0, 0, 0, 0, 0, 0, 0, 0, 0, 0, 0, 0, 0, 0, 0, 0, 0, 0, 0
0, 0, 17, 3, 2, 10, 13, 31, 39, 69, 121, 103, 125, 179, 175, 212, 188, 222, 211, 257, 256, 259, 248, 227, 263, 220, 243, 225, 241, 219, 203, 202, 168, 171, 130, 157, 134, 127, 117, 114, 93, 75, 55, 61, 48, 12, 2, 0, 0, 0, 0, 0, 0, 0, 0, 0, 0, 0, 0, 0, 0, 0, 0, 0, 0, 0, 0, 0, 0, 0, 0, 0, 0, 0, 0, 0, 0, 0, 0, 0, 0, 0, 0, 0, 0, 0, 0, 0, 0, 0, 0, 0, 0, 0, 0, 0, 0, 0, 0, 0, 0, 0, 0, 0, 0, 0
0, 0, 18, 2, 3, 5, 17, 21, 43, 60, 141, 98, 123, 150, 180, 224, 212, 224, 203, 240, 244, 269, 236, 240, 258, 236, 223, 228, 229, 218, 191, 186, 170, 180, 157, 159, 140, 117, 109, 122, 88, 87, 66, 73, 38, 17, 2, 0, 0, 0, 0, 0, 0, 0, 0, 0, 0, 0, 0, 0, 0, 0, 0, 0, 0, 0, 0, 0, 0, 0, 0, 0, 0, 0, 0, 0, 0, 0, 0, 0, 0, 0, 0, 0, 0, 0, 0, 0, 0, 0, 0, 0, 0, 0, 0, 0, 0, 0, 0, 0, 0, 0, 0, 0, 0, 0
0, 0, 19, 2, 3, 7, 15, 33, 45, 71, 119, 99, 117, 143, 169, 198, 193, 218, 256, 261, 252, 268, 225, 256, 259, 202, 235, 213, 190, 217, 173, 180, 192, 189, 159, 141, 138, 128, 103, 98, 102, 85, 67, 47, 37, 24, 3, 0, 0, 0, 0, 0, 0, 0, 0, 0, 0, 0, 0, 0, 0, 0, 0, 0, 0, 0, 0, 0, 0, 0, 0, 0, 0, 0, 0, 0, 0, 0, 0, 0, 0, 0, 0, 0, 0, 0, 0, 0, 0, 0, 0, 0, 0, 0, 0, 0, 0, 0, 0, 0, 0, 0, 0, 0, 0, 0
0, 0, 20, 4, 4, 7, 16, 21, 31, 65, 107, 109, 100, 146, 184, 214, 209, 176, 218, 212, 257, 250, 260, 258, 218, 243, 244, 218, 240, 230, 203, 173, 176, 170, 160, 151, 124, 130, 110, 97, 102, 86, 72, 52, 46, 26, 0, 0, 0, 0, 0, 0, 0, 0, 0, 0, 0, 0, 0, 0, 0, 0, 0, 0, 0, 0, 0, 0, 0, 0, 0, 0, 0, 0, 0, 0, 0, 0, 0, 0, 0, 0, 0, 0, 0, 0, 0, 0, 0, 0, 0, 0, 0, 0, 0, 0, 0, 0, 0, 0, 0, 0, 0, 0, 0, 0
0, 0, 21, 1, 2, 9, 12, 23, 45, 67, 124, 102, 111, 170, 148, 199, 172, 216, 237, 262, 266, 243, 244, 235, 239, 263, 246, 252, 181, 178, 210, 208, 181, 157, 136, 143, 137, 150, 105, 92, 94, 65, 67, 57, 39, 15, 0, 0, 0, 0, 0, 0, 0, 0, 0, 0, 0, 0, 0, 0, 0, 0, 0, 0, 0, 0, 0, 0, 0, 0, 0, 0, 0, 0, 0, 0, 0, 0, 0, 0, 0, 0, 0, 0, 0, 0, 0, 0, 0, 0, 0, 0, 0, 0, 0, 0, 0, 0, 0, 0, 0, 0, 0, 0, 0, 0
0, 0, 22, 2, 4, 13, 12, 30, 39, 69, 140, 101, 107, 140, 159, 174, 211, 216, 209, 214, 258, 255, 269, 205, 237, 251, 200, 249, 226, 200, 198, 198, 196, 175, 157, 149, 133, 112, 106, 116, 115, 78, 65, 51, 24, 25, 2, 0, 0, 0, 0, 0, 0, 0, 0, 0, 0, 0, 0, 0, 0, 0, 0, 0, 0, 0, 0, 0, 0, 0, 0, 0, 0, 0, 0, 0, 0, 0, 0, 0, 0, 0, 0, 0, 0, 0, 0, 0, 0, 0, 0, 0, 0, 0, 0, 0, 0, 0, 0, 0, 0, 0, 0, 0, 0, 0
0, 0, 23, 3, 1, 7, 11, 37, 33, 67, 116, 84, 110, 148, 183, 229, 204, 191, 215, 250, 241, 270, 253, 225, 251, 234, 235, 240, 244, 215, 188, 207, 158, 174, 167, 127, 130, 125, 94, 106, 79, 95, 56, 44, 32, 24, 3, 0, 0, 0, 0, 0, 0, 0, 0, 0, 0, 0, 0, 0, 0, 0, 0, 0, 0, 0, 0, 0, 0, 0, 0, 0, 0, 0, 0, 0, 0, 0, 0, 0, 0, 0, 0, 0, 0, 0, 0, 0, 0, 0, 0, 0, 0, 0, 0, 0, 0, 0, 0, 0, 0, 0, 0, 0, 0, 0
0, 0, 24, 2, 6, 10, 20, 31, 36, 51, 135, 97, 105, 150, 202, 188, 211, 197, 225, 224, 249, 231, 257, 239, 244, 285, 235, 249, 250, 212, 197, 171, 177, 180, 151, 125, 135, 139, 106, 110, 90, 77, 54, 57, 43, 15, 1, 0, 0, 0, 0, 0, 0, 0, 0, 0, 0, 0, 0, 0, 0, 0, 0, 0, 0, 0, 0, 0, 0, 0, 0, 0, 0, 0, 0, 0, 0, 0, 0, 0, 0, 0, 0, 0, 0, 0, 0, 0, 0, 0, 0, 0, 0, 0, 0, 0, 0, 0, 0, 0, 0, 0, 0, 0, 0, 0
0, 0, 25, 5, 1, 7, 22, 25, 40, 42, 103, 85, 125, 152, 172, 179, 220, 203, 247, 245, 222, 247, 260, 251, 216, 224, 230, 243, 218, 237, 201, 196, 171, 136, 149, 144, 122, 128, 98, 103, 80, 76, 61, 51, 36, 23, 1, 0, 0, 0, 0, 0, 0, 0, 0, 0, 0, 0, 0, 0, 0, 0, 0, 0, 0, 0, 0, 0, 0, 0, 0, 0, 0, 0, 0, 0, 0, 0, 0, 0, 0, 0, 0, 0, 0, 0, 0, 0, 0, 0, 0, 0, 0, 0, 0, 0, 0, 0, 0, 0, 0, 0, 0, 0, 0, 0
0, 0, 26, 0, 5, 8, 13, 22, 35, 65, 123, 106, 90, 142, 173, 157, 185, 234, 230, 255, 213, 240, 267, 252, 236, 235, 225, 226, 237, 207, 191, 192, 170, 167, 162, 156, 145, 126, 122, 114, 94, 61, 58, 71, 41, 25, 3, 0, 0, 0, 0, 0, 0, 0, 0, 0, 0, 0, 0, 0, 0, 0, 0, 0, 0, 0, 0, 0, 0, 0, 0, 0, 0, 0, 0, 0, 0, 0, 0, 0, 0, 0, 0, 0, 0, 0, 0, 0, 0, 0, 0, 0, 0, 0, 0, 0, 0, 0, 0, 0, 0, 0, 0, 0, 0, 0
0, 0, 27, 3, 3, 5, 15, 25, 44, 47, 115, 96, 107, 144, 182, 197, 206, 235, 217, 224, 234, 268, 227, 246, 234, 232, 232, 228, 221, 221, 206, 179, 204, 142, 175, 151, 152, 131, 121, 107, 90, 87, 76, 62, 30, 14, 0, 0, 0, 0, 0, 0, 0, 0, 0, 0, 0, 0, 0, 0, 0, 0, 0, 0, 0, 0, 0, 0, 0, 0, 0, 0, 0, 0, 0, 0, 0, 0, 0, 0, 0, 0, 0, 0, 0, 0, 0, 0, 0, 0, 0, 0, 0, 0, 0, 0, 0, 0, 0, 0, 0, 0, 0, 0, 0, 0
0, 0, 28, 0, 4, 6, 19, 33, 39, 64, 121, 92, 109, 124, 173, 179, 219, 172, 210, 283, 261, 268, 228, 248, 232, 241, 255, 220, 203, 216, 216, 191, 192, 160, 155, 143, 164, 99, 116, 95, 99, 85, 57, 44, 39, 17, 0, 0, 0, 0, 0, 0, 0, 0, 0, 0, 0, 0, 0, 0, 0, 0, 0, 0, 0, 0, 0, 0, 0, 0, 0, 0, 0, 0, 0, 0, 0, 0, 0, 0, 0, 0, 0, 0, 0, 0, 0, 0, 0, 0, 0, 0, 0, 0, 0, 0, 0, 0, 0, 0, 0, 0, 0, 0, 0, 0
0, 0, 29, 1, 2, 11, 11, 32, 42, 48, 119, 82, 123, 161, 204, 196, 216, 203, 191, 231, 247, 253, 209, 252, 227, 236, 227, 222, 213, 218, 206, 203, 179, 170, 153, 125, 159, 125, 117, 87, 76, 76, 70, 51, 48, 22, 2, 0, 0, 0, 0, 0, 0, 0, 0, 0, 0, 0, 0, 0, 0, 0, 0, 0, 0, 0, 0, 0, 0, 0, 0, 0, 0, 0, 0, 0, 0, 0, 0, 0, 0, 0, 0, 0, 0, 0, 0, 0, 0, 0, 0, 0, 0, 0, 0, 0, 0, 0, 0, 0, 0, 0, 0, 0, 0, 0
0, 0, 30, 5, 2, 14, 9, 19, 41, 55, 113, 85, 99, 178, 173, 195, 207, 202, 202, 239, 238, 288, 252, 227, 243, 249, 245, 188, 209, 189, 197, 204, 208, 189, 168, 143, 140, 143, 112, 109, 104, 79, 77, 60, 36, 23, 1, 0, 0, 0, 0, 0, 0, 0, 0, 0, 0, 0, 0, 0, 0, 0, 0, 0, 0, 0, 0, 0, 0, 0, 0, 0, 0, 0, 0, 0, 0, 0, 0, 0, 0, 0, 0, 0, 0, 0, 0, 0, 0, 0, 0, 0, 0, 0, 0, 0, 0, 0, 0, 0, 0, 0, 0, 0, 0, 0
0, 0, 31, 4, 1, 8, 11, 27, 45, 54, 135, 93, 123, 139, 167, 182, 198, 221, 224, 243, 256, 249, 238, 272, 246, 210, 222, 214, 218, 187, 197, 197, 161, 148, 156, 146, 138, 112, 92, 104, 102, 77, 59, 53, 39, 27, 2, 0, 0, 0, 0, 0, 0, 0, 0, 0, 0, 0, 0, 0, 0, 0, 0, 0, 0, 0, 0, 0, 0, 0, 0, 0, 0, 0, 0, 0, 0, 0, 0, 0, 0, 0, 0, 0, 0, 0, 0, 0, 0, 0, 0, 0, 0, 0, 0, 0, 0, 0, 0, 0, 0, 0, 0, 0, 0, 0
0, 0, 32, 3, 5, 11, 13, 19, 37, 64, 117, 102, 107, 161, 167, 212, 193, 190, 210, 253, 253, 282, 274, 262, 253, 255, 207, 237, 223, 201, 229, 189, 179, 158, 176, 149, 137, 116, 112, 104, 78, 77, 74, 50, 38, 18, 1, 0, 0, 0, 0, 0, 0, 0, 0, 0, 0, 0, 0, 0, 0, 0, 0, 0, 0, 0, 0, 0, 0, 0, 0, 0, 0, 0, 0, 0, 0, 0, 0, 0, 0, 0, 0, 0, 0, 0, 0, 0, 0, 0, 0, 0, 0, 0, 0, 0, 0, 0, 0, 0, 0, 0, 0, 0, 0, 0
0, 0, 33, 4, 4, 6, 12, 21, 30, 36, 137, 115, 115, 165, 156, 200, 213, 209, 230, 242, 248, 281, 222, 257, 205, 243, 255, 235, 190, 208, 233, 195, 174, 160, 163, 143, 135, 132, 94, 122, 90, 80, 45, 47, 49, 20, 0, 0, 0, 0, 0, 0, 0, 0, 0, 0, 0, 0, 0, 0, 0, 0, 0, 0, 0, 0, 0, 0, 0, 0, 0, 0, 0, 0, 0, 0, 0, 0, 0, 0, 0, 0, 0, 0, 0, 0, 0, 0, 0, 0, 0, 0, 0, 0, 0, 0, 0, 0, 0, 0, 0, 0, 0, 0, 0, 0
0, 0, 34, 1, 2, 3, 14, 28, 33, 55, 116, 105, 115, 160, 177, 212, 199, 214, 230, 251, 271, 252, 250, 271, 239, 246, 264, 216, 194, 204, 220, 183, 152, 163, 160, 143, 128, 125, 106, 111, 99, 93, 66, 60, 32, 18, 0, 0, 0, 0, 0, 0, 0, 0, 0, 0, 0, 0, 0, 0, 0, 0, 0, 0, 0, 0, 0, 0, 0, 0, 0, 0, 0, 0, 0, 0, 0, 0, 0, 0, 0, 0, 0, 0, 0, 0, 0, 0, 0, 0, 0, 0, 0, 0, 0, 0, 0, 0, 0, 0, 0, 0, 0, 0, 0, 0
0, 0, 35, 2, 2, 9, 18, 23, 37, 46, 107, 103, 102, 151, 177, 206, 181, 233, 244, 251, 213, 280, 259, 226, 254, 242, 248, 223, 200, 200, 174, 206, 179, 167, 164, 154, 141, 138, 97, 112, 106, 72, 53, 53, 45, 20, 2, 0, 0, 0, 0, 0, 0, 0, 0, 0, 0, 0, 0, 0, 0, 0, 0, 0, 0, 0, 0, 0, 0, 0, 0, 0, 0, 0, 0, 0, 0, 0, 0, 0, 0, 0, 0, 0, 0, 0, 0, 0, 0, 0, 0, 0, 0, 0, 0, 0, 0, 0, 0, 0, 0, 0, 0, 0, 0, 0
0, 0, 36, 0, 3, 5, 14, 22, 31, 61, 115, 93, 118, 124, 175, 222, 175, 231, 217, 233, 256, 237, 237, 262, 213, 241, 271, 219, 196, 227, 202, 176, 182, 185, 163, 164, 149, 130, 122, 75, 111, 83, 81, 57, 32, 21, 0, 0, 0, 0, 0, 0, 0, 0, 0, 0, 0, 0, 0, 0, 0, 0, 0, 0, 0, 0, 0, 0, 0, 0, 0, 0, 0, 0, 0, 0, 0, 0, 0, 0, 0, 0, 0, 0, 0, 0, 0, 0, 0, 0, 0, 0, 0, 0, 0, 0, 0, 0, 0, 0, 0, 0, 0, 0, 0, 0
0, 0, 37, 2, 5, 5, 33, 23, 30, 58, 118, 90, 124, 148, 176, 201, 190, 225, 208, 261, 246, 238, 287, 259, 227, 232, 237, 229, 200, 189, 184, 215, 176, 181, 176, 141, 144, 136, 113, 94, 95, 69, 65, 50, 46, 15, 1, 0, 0, 0, 0, 0, 0, 0, 0, 0, 0, 0, 0, 0, 0, 0, 0, 0, 0, 0, 0, 0, 0, 0, 0, 0, 0, 0, 0, 0, 0, 0, 0, 0, 0, 0, 0, 0, 0, 0, 0, 0, 0, 0, 0, 0, 0, 0, 0, 0, 0, 0, 0, 0, 0, 0, 0, 0, 0, 0
0, 0, 38, 1, 4, 4, 14, 23, 37, 51, 125, 102, 135, 122, 167, 211, 225, 208, 242, 222, 241, 243, 268, 283, 271, 253, 256, 217, 193, 183, 201, 189, 186, 170, 168, 181, 121, 133, 108, 99, 102, 73, 67, 41, 26, 17, 1, 0, 0, 0, 0, 0, 0, 0, 0, 0, 0, 0, 0, 0, 0, 0, 0, 0, 0, 0, 0, 0, 0, 0, 0, 0, 0, 0, 0, 0, 0, 0, 0, 0, 0, 0, 0, 0, 0, 0, 0, 0, 0, 0, 0, 0, 0, 0, 0, 0, 0, 0, 0, 0, 0, 0, 0, 0, 0, 0
0, 0, 39, 1, 3, 7, 12, 32, 34, 48, 131, 98, 113, 168, 153, 202, 208, 217, 230, 243, 247, 252, 262, 228, 261, 266, 223, 191, 240, 208, 196, 200, 209, 156, 135, 156, 132, 110, 129, 99, 75, 74, 78, 53, 44, 27, 1, 0, 0, 0, 0, 0, 0, 0, 0, 0, 0, 0, 0, 0, 0, 0, 0, 0, 0, 0, 0, 0, 0, 0, 0, 0, 0, 0, 0, 0, 0, 0, 0, 0, 0, 0, 0, 0, 0, 0, 0, 0, 0, 0, 0, 0, 0, 0, 0, 0, 0, 0, 0, 0, 0, 0, 0, 0, 0, 0
0, 0, 40, 0, 5, 6, 14, 27, 45, 59, 119, 89, 101, 157, 164, 201, 213, 206, 238, 220, 238, 247, 262, 252, 239, 277, 218, 222, 252, 216, 192, 188, 189, 147, 151, 137, 143, 124, 116, 86, 80, 63, 59, 55, 54, 19, 0, 0, 0, 0, 0, 0, 0, 0, 0, 0, 0, 0, 0, 0, 0, 0, 0, 0, 0, 0, 0, 0, 0, 0, 0, 0, 0, 0, 0, 0, 0, 0, 0, 0, 0, 0, 0, 0, 0, 0, 0, 0, 0, 0, 0, 0, 0, 0, 0, 0, 0, 0, 0, 0, 0, 0, 0, 0, 0, 0
0, 0, 41, 5, 0, 4, 12, 19, 41, 53, 85, 79, 97, 142, 156, 215, 198, 191, 230, 198, 233, 262, 259, 233, 216, 214, 196, 170, 183, 224, 187, 187, 181, 164, 167, 135, 106, 116, 113, 103, 103, 66, 67, 48, 31, 24, 1, 0, 0, 0, 0, 0, 0, 0, 0, 0, 0, 0, 0, 0, 0, 0, 0, 0, 0, 0, 0, 0, 0, 0, 0, 0, 0, 0, 0, 0, 0, 0, 0, 0, 0, 0, 0, 0, 0, 0, 0, 0, 0, 0, 0, 0, 0, 0, 0, 0, 0, 0, 0, 0, 0, 0, 0, 0, 0, 0
0, 0, 42, 1, 1, 8, 7, 15, 22, 40, 75, 66, 75, 114, 137, 144, 148, 166, 168, 205, 175, 188, 199, 188, 191, 172, 161, 163, 167, 188, 136, 144, 151, 134, 97, 106, 95, 103, 95, 88, 84, 61, 55, 44, 39, 17, 1, 0, 0, 0, 0, 0, 0, 0, 0, 0, 0, 0, 0, 0, 0, 0, 0, 0, 0, 0, 0, 0, 0, 0, 0, 0, 0, 0, 0, 0, 0, 0, 0, 0, 0, 0, 0, 0, 0, 0, 0, 0, 0, 0, 0, 0, 0, 0, 0, 0, 0, 0, 0, 0, 0, 0, 0, 0, 0, 0
0, 0, 43, 2, 0, 2, 11, 15, 15, 37, 61, 45, 85, 77, 101, 119, 94, 117, 103, 134, 155, 143, 161, 160, 142, 156, 152, 127, 143, 136, 133, 115, 125, 110, 109, 109, 83, 74, 83, 68, 48, 45, 28, 34, 32, 7, 1, 0, 0, 0, 0, 0, 0, 0, 0, 0, 0, 0, 0, 0, 0, 0, 0, 0, 0, 0, 0, 0, 0, 0, 0, 0, 0, 0, 0, 0, 0, 0, 0, 0, 0, 0, 0, 0, 0, 0, 0, 0, 0, 0, 0, 0, 0, 0, 0, 0, 0, 0, 0, 0, 0, 0, 0, 0, 0, 0
0, 0, 44, 0, 2, 5, 6, 15, 17, 36, 31, 41, 34, 50, 47, 72, 112, 88, 85, 101, 119, 112, 84, 115, 96, 116, 107, 105, 103, 89, 104, 90, 90, 88, 80, 79, 61, 55, 55, 51, 54, 50, 30, 24, 19, 11, 0, 0, 0, 0, 0, 0, 0, 0, 0, 0, 0, 0, 0, 0, 0, 0, 0, 0, 0, 0, 0, 0, 0, 0, 0, 0, 0, 0, 0, 0, 0, 0, 0, 0, 0, 0, 0, 0, 0, 0, 0, 0, 0, 0, 0, 0, 0, 0, 0, 0, 0, 0, 0, 0, 0, 0, 0, 0, 0, 0
0, 0, 45, 1, 0, 1, 10, 7, 7, 11, 26, 19, 39, 40, 40, 74, 62, 78, 68, 59, 87, 79, 61, 85, 73, 83, 76, 80, 88, 86, 58, 53, 68, 56, 61, 61, 56, 46, 53, 47, 43, 28, 28, 19, 12, 6, 0, 0, 0, 0, 0, 0, 0, 0, 0, 0, 0, 0, 0, 0, 0, 0, 0, 0, 0, 0, 0, 0, 0, 0, 0, 0, 0, 0, 0, 0, 0, 0, 0, 0, 0, 0, 0, 0, 0, 0, 0, 0, 0, 0, 0, 0, 0, 0, 0, 0, 0, 0, 0, 0, 0, 0, 0, 0, 0, 0
0, 0, 46, 0, 0, 1, 3, 4, 5, 13, 17, 11, 15, 23, 32, 40, 23, 41, 50, 49, 50, 67, 55, 70, 58, 51, 65, 48, 57, 76, 42, 46, 38, 59, 52, 47, 48, 36, 26, 33, 29, 32, 26, 26, 15, 7, 0, 0, 0, 0, 0, 0, 0, 0, 0, 0, 0, 0, 0, 0, 0, 0, 0, 0, 0, 0, 0, 0, 0, 0, 0, 0, 0, 0, 0, 0, 0, 0, 0, 0, 0, 0, 0, 0, 0, 0, 0, 0, 0, 0, 0, 0, 0, 0, 0, 0, 0, 0, 0, 0, 0, 0, 0, 0, 0, 0
0, 0, 47, 4, 0, 0, 1, 1, 3, 4, 11, 13, 10, 13, 25, 31, 12, 30, 20, 29, 54, 45, 45, 44, 46, 44, 38, 45, 39, 52, 45, 45, 27, 46, 48, 26, 36, 31, 18, 28, 28, 21, 28, 15, 7, 6, 1, 0, 0, 0, 0, 0, 0, 0, 0, 0, 0, 0, 0, 0, 0, 0, 0, 0, 0, 0, 0, 0, 0, 0, 0, 0, 0, 0, 0, 0, 0, 0, 0, 0, 0, 0, 0, 0, 0, 0, 0, 0, 0, 0, 0, 0, 0, 0, 0, 0, 0, 0, 0, 0, 0, 0, 0, 0, 0, 0
0, 0, 48, 0, 0, 0, 0, 2, 0, 3, 10, 5, 3, 11, 11, 14, 18, 14, 34, 18, 26, 27, 31, 19, 43, 30, 41, 33, 43, 36, 37, 35, 43, 34, 22, 34, 29, 26, 19, 16, 18, 16, 18, 13, 5, 5, 1, 0, 0, 0, 0, 0, 0, 0, 0, 0, 0, 0, 0, 0, 0, 0, 0, 0, 0, 0, 0, 0, 0, 0, 0, 0, 0, 0, 0, 0, 0, 0, 0, 0, 0, 0, 0, 0, 0, 0, 0, 0, 0, 0, 0, 0, 0, 0, 0, 0, 0, 0, 0, 0, 0, 0, 0, 0, 0, 0
0, 0, 49, 2, 0, 0, 0, 0, 0, 0, 5, 1, 3, 10, 7, 5, 4, 12, 17, 12, 23, 21, 25, 27, 29, 28, 34, 25, 31, 34, 34, 19, 27, 33, 33, 21, 25, 17, 25, 21, 17, 18, 12, 15, 9, 8, 0, 0, 0, 0, 0, 0, 0, 0, 0, 0, 0, 0, 0, 0, 0, 0, 0, 0, 0, 0, 0, 0, 0, 0, 0, 0, 0, 0, 0, 0, 0, 0, 0, 0, 0, 0, 0, 0, 0, 0, 0, 0, 0, 0, 0, 0, 0, 0, 0, 0, 0, 0, 0, 0, 0, 0, 0, 0, 0, 0
0, 0, 50, 0, 0, 0, 0, 1, 0, 1, 7, 1, 1, 3, 11, 6, 11, 14, 20, 28, 30, 23, 30, 37, 26, 31, 25, 36, 28, 22, 34, 31, 21, 20, 26, 26, 26, 24, 22, 10, 13, 8, 13, 6, 9, 8, 0, 0, 0, 0, 0, 0, 0, 0, 0, 0, 0, 0, 0, 0, 0, 0, 0, 0, 0, 0, 0, 0, 0, 0, 0, 0, 0, 0, 0, 0, 0, 0, 0, 0, 0, 0, 0, 0, 0, 0, 0, 0, 0, 0, 0, 0, 0, 0, 0, 0, 0, 0, 0, 0, 0, 0, 0, 0, 0, 0
0, 0, 51, 0, 0, 0, 1, 2, 2, 4, 11, 4, 6, 10, 8, 18, 13, 18, 20, 40, 33, 34, 39, 32, 35, 37, 36, 38, 36, 31, 34, 26, 30, 37, 30, 31, 23, 27, 23, 21, 20, 17, 13, 8, 15, 3, 1, 0, 0, 0, 0, 0, 0, 0, 0, 0, 0, 0, 0, 0, 0, 0, 0, 0, 0, 0, 0, 0, 0, 0, 0, 0, 0, 0, 0, 0, 0, 0, 0, 0, 0, 0, 0, 0, 0, 0, 0, 0, 0, 0, 0, 0, 0, 0, 0, 0, 0, 0, 0, 0, 0, 0, 0, 0, 0, 0
0, 0, 52, 0, 0, 1, 0, 3, 3, 3, 10, 7, 11, 12, 18, 23, 20, 43, 32, 45, 34, 43, 28, 42, 36, 46, 41, 56, 50, 45, 44, 35, 34, 44, 35, 22, 41, 33, 25, 27, 24, 25, 10, 14, 4, 4, 0, 0, 0, 0, 0, 0, 0, 0, 0, 0, 0, 0, 0, 0, 0, 0, 0, 0, 0, 0, 0, 0, 0, 0, 0, 0, 0, 0, 0, 0, 0, 0, 0, 0, 0, 0, 0, 0, 0, 0, 0, 0, 0, 0, 0, 0, 0, 0, 0, 0, 0, 0, 0, 0, 0, 0, 0, 0, 0, 0
0, 0, 53, 0, 1, 2, 2, 4, 9, 5, 14, 18, 21, 34, 31, 46, 33, 36, 58, 62, 53, 57, 70, 61, 71, 66, 47, 51, 52, 44, 40, 60, 47, 56, 38, 39, 46, 37, 28, 48, 35, 28, 23, 24, 16, 3, 0, 0, 0, 0, 0, 0, 0, 0, 0, 0, 0, 0, 0, 0, 0, 0, 0, 0, 0, 0, 0, 0, 0, 0, 0, 0, 0, 0, 0, 0, 0, 0, 0, 0, 0, 0, 0, 0, 0, 0, 0, 0, 0, 0, 0, 0, 0, 0, 0, 0, 0, 0, 0, 0, 0, 0, 0, 0, 0, 0
0, 0, 54, 0, 1, 1, 4, 7, 11, 15, 27, 17, 28, 39, 47, 67, 60, 66, 77, 78, 81, 87, 82, 85, 89, 89, 72, 81, 71, 74, 85, 78, 66, 74, 67, 68, 43, 48, 45, 35, 43, 23, 33, 19, 23, 3, 0, 0, 0, 0, 0, 0, 0, 0, 0, 0, 0, 0, 0, 0, 0, 0, 0, 0, 0, 0, 0, 0, 0, 0, 0, 0, 0, 0, 0, 0, 0, 0, 0, 0, 0, 0, 0, 0, 0, 0, 0, 0, 0, 0, 0, 0, 0, 0, 0, 0, 0, 0, 0, 0, 0, 0, 0, 0, 0, 0
0, 0, 55, 1, 2, 6, 7, 13, 19, 22, 45, 37, 41, 45, 87, 83, 78, 81, 101, 104, 106, 103, 111, 130, 116, 110, 107, 94, 87, 98, 84, 96, 97, 78, 68, 71, 81, 61, 64, 64, 42, 39, 26, 24, 17, 9, 0, 0, 0, 0, 0, 0, 0, 0, 0, 0, 0, 0, 0, 0, 0, 0, 0, 0, 0, 0, 0, 0, 0, 0, 0, 0, 0, 0, 0, 0, 0, 0, 0, 0, 0, 0, 0, 0, 0, 0, 0, 0, 0, 0, 0, 0, 0, 0, 0, 0, 0, 0, 0, 0, 0, 0, 0, 0, 0, 0
0, 0, 56, 0, 0, 4, 12, 7, 20, 20, 50, 34, 76, 93, 93, 101, 100, 121, 113, 150, 152, 153, 145, 137, 141, 130, 146, 129, 175, 123, 147, 135, 121, 86, 111, 88, 81, 88, 65, 59, 59, 51, 34, 45, 33, 11, 0, 0, 0, 0, 0, 0, 0, 0, 0, 0, 0, 0, 0, 0, 0, 0, 0, 0, 0, 0, 0, 0, 0, 0, 0, 0, 0, 0, 0, 0, 0, 0, 0, 0, 0, 0, 0, 0, 0, 0, 0, 0, 0, 0, 0, 0, 0, 0, 0, 0, 0, 0, 0, 0, 0, 0, 0, 0, 0, 0
0, 0, 57, 2, 4, 5, 8, 19, 26, 45, 81, 77, 86, 119, 120, 150, 169, 149, 154, 180, 191, 188, 191, 191, 189, 200, 191, 153, 159, 143, 164, 144, 129, 133, 112, 122, 102, 94, 75, 100, 86, 50, 52, 50, 32, 9, 1, 0, 0, 0, 0, 0, 0, 0, 0, 0, 0, 0, 0, 0, 0, 0, 0, 0, 0, 0, 0, 0, 0, 0, 0, 0, 0, 0, 0, 0, 0, 0, 0, 0, 0, 0, 0, 0, 0, 0, 0, 0, 0, 0, 0, 0, 0, 0, 0, 0, 0, 0, 0, 0, 0, 0, 0, 0, 0, 0
0, 0, 58, 3, 3, 7, 10, 26, 36, 50, 87, 91, 109, 112, 167, 200, 185, 178, 212, 236, 231, 252, 240, 221, 247, 206, 195, 205, 177, 191, 170, 202, 161, 140, 149, 148, 154, 103, 113, 91, 88, 53, 55, 52, 47, 15, 5, 0, 0, 0, 0, 0, 0, 0, 0, 0, 0, 0, 0, 0, 0, 0, 0, 0, 0, 0, 0, 0, 0, 0, 0, 0, 0, 0, 0, 0, 0, 0, 0, 0, 0, 0, 0, 0, 0, 0, 0, 0, 0, 0, 0, 0, 0, 0, 0, 0, 0, 0, 0, 0, 0, 0, 0, 0, 0, 0
0, 0, 59, 2, 7, 6, 21, 26, 44, 61, 103, 100, 117, 139, 157, 195, 179, 211, 219, 236, 249, 266, 228, 254, 264, 235, 239, 226, 229, 222, 179, 191, 170, 153, 165, 137, 137, 129, 127, 94, 82, 95, 59, 46, 37, 20, 1, 0, 0, 0, 0, 0, 0, 0, 0, 0, 0, 0, 0, 0, 0, 0, 0, 0, 0, 0, 0, 0, 0, 0, 0, 0, 0, 0, 0, 0, 0, 0, 0, 0, 0, 0, 0, 0, 0, 0, 0, 0, 0, 0, 0, 0, 0, 0, 0, 0, 0, 0, 0, 0, 0, 0, 0, 0, 0, 0
0, 0, 60, 0, 3, 10, 14, 33, 31, 42, 99, 92, 126, 142, 150, 191, 203, 221, 250, 238, 253, 270, 252, 249, 245, 248, 200, 213, 209, 209, 222, 189, 171, 181, 153, 146, 144, 115, 116, 116, 84, 84, 72, 61, 32, 25, 3, 0, 0, 0, 0, 0, 0, 0, 0, 0, 0, 0, 0, 0, 0, 0, 0, 0, 0, 0, 0, 0, 0, 0, 0, 0, 0, 0, 0, 0, 0, 0, 0, 0, 0, 0, 0, 0, 0, 0, 0, 0, 0, 0, 0, 0, 0, 0, 0, 0, 0, 0, 0, 0, 0, 0, 0, 0, 0, 0
0, 0, 61, 3, 6, 8, 13, 18, 40, 62, 109, 103, 117, 154, 156, 197, 164, 222, 209, 238, 239, 221, 229, 259, 251, 243, 246, 235, 242, 238, 196, 196, 191, 167, 134, 134, 154, 143, 121, 118, 112, 84, 78, 47, 43, 26, 1, 0, 0, 0, 0, 0, 0, 0, 0, 0, 0, 0, 0, 0, 0, 0, 0, 0, 0, 0, 0, 0, 0, 0, 0, 0, 0, 0, 0, 0, 0, 0, 0, 0, 0, 0, 0, 0, 0, 0, 0, 0, 0, 0, 0, 0, 0, 0, 0, 0, 0, 0, 0, 0, 0, 0, 0, 0, 0, 0
0, 0, 62, 2, 2, 10, 11, 23, 34, 44, 114, 84, 129, 125, 170, 196, 209, 181, 223, 210, 216, 243, 287, 258, 238, 247, 214, 235, 222, 204, 206, 208, 199, 169, 144, 143, 150, 125, 113, 110, 86, 94, 57, 54, 51, 32, 1, 0, 0, 0, 0, 0, 0, 0, 0, 0, 0, 0, 0, 0, 0, 0, 0, 0, 0, 0, 0, 0, 0, 0, 0, 0, 0, 0, 0, 0, 0, 0, 0, 0, 0, 0, 0, 0, 0, 0, 0, 0, 0, 0, 0, 0, 0, 0, 0, 0, 0, 0, 0, 0, 0, 0, 0, 0, 0, 0
0, 0, 63, 2, 8, 4, 24, 28, 47, 57, 123, 106, 100, 155, 170, 200, 199, 260, 232, 237, 254, 234, 269, 265, 251, 209, 213, 229, 216, 227, 179, 191, 169, 198, 160, 151, 133, 140, 106, 109, 85, 67, 61, 52, 59, 23, 1, 0, 0, 0, 0, 0, 0, 0, 0, 0, 0, 0, 0, 0, 0, 0, 0, 0, 0, 0, 0, 0, 0, 0, 0, 0, 0, 0, 0, 0, 0, 0, 0, 0, 0, 0, 0, 0, 0, 0, 0, 0, 0, 0, 0, 0, 0, 0, 0, 0, 0, 0, 0, 0, 0, 0, 0, 0, 0, 0
0, 0, 64, 0, 5, 10, 8, 35, 41, 55, 118, 96, 114, 148, 153, 196, 189, 217, 210, 242, 245, 245, 240, 246, 241, 232, 227, 224, 217, 190, 228, 174, 181, 171, 153, 134, 152, 142, 97, 90, 113, 85, 62, 46, 46, 27, 2, 0, 0, 0, 0, 0, 0, 0, 0, 0, 0, 0, 0, 0, 0, 0, 0, 0, 0, 0, 0, 0, 0, 0, 0, 0, 0, 0, 0, 0, 0, 0, 0, 0, 0, 0, 0, 0, 0, 0, 0, 0, 0, 0, 0, 0, 0, 0, 0, 0, 0, 0, 0, 0, 0, 0, 0, 0, 0, 0
0, 0, 65, 5, 6, 10, 17, 29, 45, 55, 119, 89, 105, 143, 179, 185, 205, 215, 220, 260, 254, 226, 234, 255, 221, 228, 239, 197, 212, 208, 191, 199, 187, 168, 160, 129, 157, 118, 124, 94, 86, 82, 58, 48, 34, 26, 1, 0, 0, 0, 0, 0, 0, 0, 0, 0, 0, 0, 0, 0, 0, 0, 0, 0, 0, 0, 0, 0, 0, 0, 0, 0, 0, 0, 0, 0, 0, 0, 0, 0, 0, 0, 0, 0, 0, 0, 0, 0, 0, 0, 0, 0, 0, 0, 0, 0, 0, 0, 0, 0, 0, 0, 0, 0, 0, 0
0, 0, 66, 1, 12, 9, 17, 23, 33, 51, 111, 117, 103, 158, 180, 173, 196, 195, 212, 237, 225, 229, 258, 262, 262, 229, 254, 215, 211, 229, 223, 200, 195, 142, 166, 150, 132, 142, 98, 114, 96, 73, 73, 52, 51, 34, 0, 0, 0, 0, 0, 0, 0, 0, 0, 0, 0, 0, 0, 0, 0, 0, 0, 0, 0, 0, 0, 0, 0, 0, 0, 0, 0, 0, 0, 0, 0, 0, 0, 0, 0, 0, 0, 0, 0, 0, 0, 0, 0, 0, 0, 0, 0, 0, 0, 0, 0, 0, 0, 0, 0, 0, 0, 0, 0, 0
0, 0, 67, 3, 2, 7, 11, 28, 35, 54, 110, 93, 108, 166, 173, 181, 200, 220, 226, 227, 284, 250, 242, 234, 233, 249, 233, 243, 214, 196, 193, 163, 176, 177, 154, 142, 156, 117, 121, 112, 91, 67, 58, 50, 51, 18, 0, 0, 0, 0, 0, 0, 0, 0, 0, 0, 0, 0, 0, 0, 0, 0, 0, 0, 0, 0, 0, 0, 0, 0, 0, 0, 0, 0, 0, 0, 0, 0, 0, 0, 0, 0, 0, 0, 0, 0, 0, 0, 0, 0, 0, 0, 0, 0, 0, 0, 0, 0, 0, 0, 0, 0, 0, 0, 0, 0
0, 0, 68, 2, 4, 5, 7, 26, 49, 68, 121, 90, 109, 148, 196, 190, 208, 234, 232, 270, 231, 246, 262, 263, 244, 250, 254, 229, 187, 210, 205, 221, 198, 154, 147, 147, 156, 118, 126, 105, 80, 62, 73, 45, 48, 21, 1, 0, 0, 0, 0, 0, 0, 0, 0, 0, 0, 0, 0, 0, 0, 0, 0, 0, 0, 0, 0, 0, 0, 0, 0, 0, 0, 0, 0, 0, 0, 0, 0, 0, 0, 0, 0, 0, 0, 0, 0, 0, 0, 0, 0, 0, 0, 0, 0, 0, 0, 0, 0, 0, 0, 0, 0, 0, 0, 0
0, 0, 69, 7, 4, 11, 17, 26, 44, 65, 118, 109, 118, 150, 207, 189, 207, 212, 222, 242, 261, 250, 274, 258, 233, 250, 229, 220, 204, 187, 200, 158, 178, 176, 171, 158, 170, 131, 110, 97, 85, 81, 72, 55, 40, 16, 0, 0, 0, 0, 0, 0, 0, 0, 0, 0, 0, 0, 0, 0, 0, 0, 0, 0, 0, 0, 0, 0, 0, 0, 0, 0, 0, 0, 0, 0, 0, 0, 0, 0, 0, 0, 0, 0, 0, 0, 0, 0, 0, 0, 0, 0, 0, 0, 0, 0, 0, 0, 0, 0, 0, 0, 0, 0, 0, 0
0, 0, 70, 4, 2, 5, 10, 32, 55, 61, 128, 92, 110, 125, 148, 200, 212, 216, 221, 289, 212, 234, 254, 254, 234, 220, 247, 224, 246, 204, 190, 232, 206, 178, 134, 141, 137, 130, 122, 82, 94, 104, 65, 51, 43, 21, 0, 0, 0, 0, 0, 0, 0, 0, 0, 0, 0, 0, 0, 0, 0, 0, 0, 0, 0, 0, 0, 0, 0, 0, 0, 0, 0, 0, 0, 0, 0, 0, 0, 0, 0, 0, 0, 0, 0, 0, 0, 0, 0, 0, 0, 0, 0, 0, 0, 0, 0, 0, 0, 0, 0, 0, 0, 0, 0, 0
0, 0, 71, 0, 3, 10, 19, 32, 46, 46, 118, 101, 114, 143, 142, 189, 183, 245, 193, 213, 259, 226, 236, 241, 232, 239, 224, 193, 232, 199, 240, 198, 173, 162, 163, 144, 129, 105, 117, 118, 107, 85, 71, 53, 40, 25, 1, 0, 0, 0, 0, 0, 0, 0, 0, 0, 0, 0, 0, 0, 0, 0, 0, 0, 0, 0, 0, 0, 0, 0, 0, 0, 0, 0, 0, 0, 0, 0, 0, 0, 0, 0, 0, 0, 0, 0, 0, 0, 0, 0, 0, 0, 0, 0, 0, 0, 0, 0, 0, 0, 0, 0, 0, 0, 0, 0
0, 0, 72, 4, 4, 9, 19, 18, 41, 58, 113, 93, 104, 138, 182, 196, 209, 224, 200, 248, 237, 269, 250, 244, 260, 236, 201, 220, 212, 213, 202, 206, 173, 190, 174, 151, 150, 131, 120, 107, 82, 79, 65, 55, 42, 15, 1, 0, 0, 0, 0, 0, 0, 0, 0, 0, 0, 0, 0, 0, 0, 0, 0, 0, 0, 0, 0, 0, 0, 0, 0, 0, 0, 0, 0, 0, 0, 0, 0, 0, 0, 0, 0, 0, 0, 0, 0, 0, 0, 0, 0, 0, 0, 0, 0, 0, 0, 0, 0, 0, 0, 0, 0, 0, 0, 0
0, 0, 73, 10, 2, 7, 14, 24, 47, 46, 126, 82, 99, 134, 154, 213, 183, 220, 200, 219, 267, 257, 283, 240, 222, 244, 244, 244, 216, 196, 196, 219, 214, 144, 176, 166, 135, 136, 113, 117, 103, 80, 62, 42, 31, 23, 0, 0, 0, 0, 0, 0, 0, 0, 0, 0, 0, 0, 0, 0, 0, 0, 0, 0, 0, 0, 0, 0, 0, 0, 0, 0, 0, 0, 0, 0, 0, 0, 0, 0, 0, 0, 0, 0, 0, 0, 0, 0, 0, 0, 0, 0, 0, 0, 0, 0, 0, 0, 0, 0, 0, 0, 0, 0, 0, 0
0, 0, 74, 5, 4, 6, 15, 30, 31, 61, 111, 93, 100, 120, 172, 169, 207, 198, 184, 232, 263, 241, 282, 284, 251, 244, 216, 231, 227, 205, 194, 176, 175, 174, 152, 161, 138, 136, 101, 90, 101, 62, 63, 59, 50, 21, 0, 0, 0, 0, 0, 0, 0, 0, 0, 0, 0, 0, 0, 0, 0, 0, 0, 0, 0, 0, 0, 0, 0, 0, 0, 0, 0, 0, 0, 0, 0, 0, 0, 0, 0, 0, 0, 0, 0, 0, 0, 0, 0, 0, 0, 0, 0, 0, 0, 0, 0, 0, 0, 0, 0, 0, 0, 0, 0, 0
0, 0, 75, 0, 10, 6, 14, 22, 40, 55, 115, 96, 105, 141, 163, 198, 193, 234, 230, 244, 233, 247, 260, 242, 255, 240, 228, 219, 214, 201, 207, 228, 180, 166, 131, 147, 149, 145, 109, 101, 111, 82, 58, 68, 43, 24, 3, 0, 0, 0, 0, 0, 0, 0, 0, 0, 0, 0, 0, 0, 0, 0, 0, 0, 0, 0, 0, 0, 0, 0, 0, 0, 0, 0, 0, 0, 0, 0, 0, 0, 0, 0, 0, 0, 0, 0, 0, 0, 0, 0, 0, 0, 0, 0, 0, 0, 0, 0, 0, 0, 0, 0, 0, 0, 0, 0
0, 0, 76, 5, 7, 14, 12, 21, 33, 53, 108, 92, 98, 173, 159, 221, 202, 192, 250, 234, 247, 252, 264, 281, 245, 232, 229, 225, 228, 197, 212, 199, 187, 175, 175, 144, 125, 116, 103, 107, 84, 97, 78, 59, 41, 19, 0, 0, 0, 0, 0, 0, 0, 0, 0, 0, 0, 0, 0, 0, 0, 0, 0, 0, 0, 0, 0, 0, 0, 0, 0, 0, 0, 0, 0, 0, 0, 0, 0, 0, 0, 0, 0, 0, 0, 0, 0, 0, 0, 0, 0, 0, 0, 0, 0, 0, 0, 0, 0, 0, 0, 0, 0, 0, 0, 0
0, 0, 77, 1, 5, 6, 20, 20, 43, 39, 126, 85, 106, 148, 170, 228, 198, 235, 224, 235, 226, 257, 257, 243, 234, 236, 263, 224, 237, 212, 209, 175, 175, 200, 166, 149, 119, 123, 116, 96, 89, 96, 73, 55, 42, 24, 3, 0, 0, 0, 0, 0, 0, 0, 0, 0, 0, 0, 0, 0, 0, 0, 0, 0, 0, 0, 0, 0, 0, 0, 0, 0, 0, 0, 0, 0, 0, 0, 0, 0, 0, 0, 0, 0, 0, 0, 0, 0, 0, 0, 0, 0, 0, 0, 0, 0, 0, 0, 0, 0, 0, 0, 0, 0, 0, 0
