# TOPAS Version: 3.1.p3
# Parameter File: REDLEN_small_phantom_mc_basic_3cm.txt
# Results for scorer PhantomDose
# Scored on surface: CdTeCrystal1/YPlusSurface
# X in 100 bins of 0.03332 cm
# Y in 1 bin  of 0.4 cm
# Z in 100 bins of 0.0375 cm
# SurfaceTrackCount : Sum   
# Binned by incident track energy in 100 bins of 0.00104 MeV from 0.016 MeV to 0.12 MeV
# First bin is underflow, next to last bin is overflow, last bin is for case of no incident track.
0, 0, 0, 0, 0, 0, 0, 0, 0, 0, 0, 0, 1, 1, 0, 0, 2, 3, 3, 1, 2, 1, 2, 2, 3, 3, 2, 3, 1, 1, 1, 2, 1, 1, 1, 0, 3, 1, 0, 0, 0, 0, 3, 1, 1, 0, 0, 0, 0, 0, 0, 0, 0, 0, 0, 0, 0, 0, 0, 0, 0, 0, 0, 0, 0, 0, 0, 0, 0, 0, 0, 0, 0, 0, 0, 0, 0, 0, 0, 0, 0, 0, 0, 0, 0, 0, 0, 0, 0, 0, 0, 0, 0, 0, 0, 0, 0, 0, 0, 0, 0, 0, 0, 0, 0, 0
0, 0, 1, 0, 0, 0, 0, 0, 0, 0, 0, 0, 2, 0, 0, 3, 0, 1, 3, 2, 3, 3, 1, 2, 2, 1, 1, 5, 2, 6, 0, 2, 0, 4, 1, 0, 0, 1, 1, 0, 0, 0, 0, 0, 0, 0, 0, 0, 0, 0, 0, 0, 0, 0, 0, 0, 0, 0, 0, 0, 0, 0, 0, 0, 0, 0, 0, 0, 0, 0, 0, 0, 0, 0, 0, 0, 0, 0, 0, 0, 0, 0, 0, 0, 0, 0, 0, 0, 0, 0, 0, 0, 0, 0, 0, 0, 0, 0, 0, 0, 0, 0, 0, 0, 0, 0
0, 0, 2, 0, 0, 0, 0, 0, 0, 0, 2, 0, 3, 1, 0, 2, 2, 5, 3, 3, 6, 3, 5, 2, 4, 4, 1, 4, 6, 8, 1, 4, 3, 1, 5, 1, 3, 1, 2, 2, 0, 1, 0, 0, 0, 2, 0, 0, 0, 0, 0, 0, 0, 0, 0, 0, 0, 0, 0, 0, 0, 0, 0, 0, 0, 0, 0, 0, 0, 0, 0, 0, 0, 0, 0, 0, 0, 0, 0, 0, 0, 0, 0, 0, 0, 0, 0, 0, 0, 0, 0, 0, 0, 0, 0, 0, 0, 0, 0, 0, 0, 0, 0, 0, 0, 0
0, 0, 3, 0, 0, 0, 0, 0, 0, 0, 0, 0, 0, 0, 1, 2, 4, 1, 2, 3, 1, 4, 4, 0, 4, 1, 2, 1, 3, 2, 2, 0, 3, 1, 1, 2, 4, 4, 1, 2, 1, 3, 0, 1, 0, 0, 0, 0, 0, 0, 0, 0, 0, 0, 0, 0, 0, 0, 0, 0, 0, 0, 0, 0, 0, 0, 0, 0, 0, 0, 0, 0, 0, 0, 0, 0, 0, 0, 0, 0, 0, 0, 0, 0, 0, 0, 0, 0, 0, 0, 0, 0, 0, 0, 0, 0, 0, 0, 0, 0, 0, 0, 0, 0, 0, 0
0, 0, 4, 0, 0, 0, 0, 0, 0, 0, 3, 0, 0, 3, 6, 2, 0, 2, 3, 1, 2, 3, 1, 1, 2, 4, 4, 1, 0, 2, 9, 1, 2, 3, 2, 2, 3, 0, 1, 2, 1, 1, 1, 2, 0, 0, 0, 0, 0, 0, 0, 0, 0, 0, 0, 0, 0, 0, 0, 0, 0, 0, 0, 0, 0, 0, 0, 0, 0, 0, 0, 0, 0, 0, 0, 0, 0, 0, 0, 0, 0, 0, 0, 0, 0, 0, 0, 0, 0, 0, 0, 0, 0, 0, 0, 0, 0, 0, 0, 0, 0, 0, 0, 0, 0, 0
0, 0, 5, 0, 4, 3, 1, 7, 15, 20, 59, 34, 39, 63, 74, 83, 65, 95, 82, 87, 123, 111, 114, 105, 111, 91, 107, 100, 93, 84, 73, 62, 74, 77, 60, 77, 70, 57, 66, 46, 46, 34, 25, 24, 18, 12, 0, 0, 0, 0, 0, 0, 0, 0, 0, 0, 0, 0, 0, 0, 0, 0, 0, 0, 0, 0, 0, 0, 0, 0, 0, 0, 0, 0, 0, 0, 0, 0, 0, 0, 0, 0, 0, 0, 0, 0, 0, 0, 0, 0, 0, 0, 0, 0, 0, 0, 0, 0, 0, 0, 0, 0, 0, 0, 0, 0
0, 0, 6, 0, 5, 10, 15, 30, 44, 54, 128, 102, 112, 136, 181, 171, 183, 191, 232, 244, 249, 215, 268, 222, 262, 243, 258, 210, 226, 191, 163, 183, 200, 156, 176, 144, 137, 123, 134, 116, 104, 77, 74, 59, 42, 15, 2, 0, 0, 0, 0, 0, 0, 0, 0, 0, 0, 0, 0, 0, 0, 0, 0, 0, 0, 0, 0, 0, 0, 0, 0, 0, 0, 0, 0, 0, 0, 0, 0, 0, 0, 0, 0, 0, 0, 0, 0, 0, 0, 0, 0, 0, 0, 0, 0, 0, 0, 0, 0, 0, 0, 0, 0, 0, 0, 0
0, 0, 7, 0, 2, 8, 19, 26, 45, 57, 96, 97, 103, 144, 152, 173, 194, 226, 235, 240, 241, 252, 281, 228, 229, 234, 234, 248, 216, 199, 184, 177, 211, 169, 143, 164, 140, 124, 128, 101, 73, 79, 65, 52, 42, 23, 0, 0, 0, 0, 0, 0, 0, 0, 0, 0, 0, 0, 0, 0, 0, 0, 0, 0, 0, 0, 0, 0, 0, 0, 0, 0, 0, 0, 0, 0, 0, 0, 0, 0, 0, 0, 0, 0, 0, 0, 0, 0, 0, 0, 0, 0, 0, 0, 0, 0, 0, 0, 0, 0, 0, 0, 0, 0, 0, 0
0, 0, 8, 4, 2, 7, 11, 23, 39, 51, 108, 80, 100, 160, 190, 218, 190, 200, 224, 242, 239, 249, 235, 212, 237, 240, 220, 203, 206, 188, 202, 178, 192, 159, 135, 135, 124, 129, 128, 112, 95, 81, 76, 46, 36, 10, 0, 0, 0, 0, 0, 0, 0, 0, 0, 0, 0, 0, 0, 0, 0, 0, 0, 0, 0, 0, 0, 0, 0, 0, 0, 0, 0, 0, 0, 0, 0, 0, 0, 0, 0, 0, 0, 0, 0, 0, 0, 0, 0, 0, 0, 0, 0, 0, 0, 0, 0, 0, 0, 0, 0, 0, 0, 0, 0, 0
0, 0, 9, 2, 4, 6, 16, 40, 39, 68, 99, 95, 117, 137, 141, 194, 207, 233, 259, 230, 244, 233, 278, 226, 251, 251, 229, 209, 246, 200, 194, 169, 171, 158, 154, 153, 138, 100, 112, 107, 96, 74, 77, 58, 32, 16, 2, 0, 0, 0, 0, 0, 0, 0, 0, 0, 0, 0, 0, 0, 0, 0, 0, 0, 0, 0, 0, 0, 0, 0, 0, 0, 0, 0, 0, 0, 0, 0, 0, 0, 0, 0, 0, 0, 0, 0, 0, 0, 0, 0, 0, 0, 0, 0, 0, 0, 0, 0, 0, 0, 0, 0, 0, 0, 0, 0
0, 0, 10, 1, 5, 5, 15, 27, 33, 66, 111, 85, 109, 142, 153, 189, 194, 197, 206, 240, 280, 239, 247, 228, 247, 223, 233, 191, 200, 203, 188, 191, 199, 181, 141, 163, 144, 113, 126, 103, 96, 80, 58, 47, 27, 15, 1, 0, 0, 0, 0, 0, 0, 0, 0, 0, 0, 0, 0, 0, 0, 0, 0, 0, 0, 0, 0, 0, 0, 0, 0, 0, 0, 0, 0, 0, 0, 0, 0, 0, 0, 0, 0, 0, 0, 0, 0, 0, 0, 0, 0, 0, 0, 0, 0, 0, 0, 0, 0, 0, 0, 0, 0, 0, 0, 0
0, 0, 11, 0, 4, 6, 15, 31, 38, 64, 124, 86, 105, 152, 168, 208, 198, 238, 247, 252, 230, 256, 263, 259, 226, 248, 269, 233, 211, 211, 180, 189, 167, 167, 170, 145, 127, 144, 106, 107, 83, 86, 71, 59, 27, 26, 1, 0, 0, 0, 0, 0, 0, 0, 0, 0, 0, 0, 0, 0, 0, 0, 0, 0, 0, 0, 0, 0, 0, 0, 0, 0, 0, 0, 0, 0, 0, 0, 0, 0, 0, 0, 0, 0, 0, 0, 0, 0, 0, 0, 0, 0, 0, 0, 0, 0, 0, 0, 0, 0, 0, 0, 0, 0, 0, 0
0, 0, 12, 2, 6, 14, 18, 22, 51, 67, 126, 81, 127, 124, 168, 195, 199, 201, 237, 250, 290, 249, 229, 225, 253, 240, 239, 233, 210, 213, 215, 196, 199, 169, 145, 127, 153, 105, 107, 81, 92, 77, 55, 67, 35, 8, 4, 0, 0, 0, 0, 0, 0, 0, 0, 0, 0, 0, 0, 0, 0, 0, 0, 0, 0, 0, 0, 0, 0, 0, 0, 0, 0, 0, 0, 0, 0, 0, 0, 0, 0, 0, 0, 0, 0, 0, 0, 0, 0, 0, 0, 0, 0, 0, 0, 0, 0, 0, 0, 0, 0, 0, 0, 0, 0, 0
0, 0, 13, 1, 2, 4, 15, 28, 42, 59, 138, 110, 118, 165, 184, 186, 181, 210, 217, 239, 238, 230, 253, 241, 246, 233, 235, 209, 188, 187, 217, 217, 182, 159, 140, 140, 141, 123, 101, 102, 96, 72, 80, 56, 48, 32, 1, 0, 0, 0, 0, 0, 0, 0, 0, 0, 0, 0, 0, 0, 0, 0, 0, 0, 0, 0, 0, 0, 0, 0, 0, 0, 0, 0, 0, 0, 0, 0, 0, 0, 0, 0, 0, 0, 0, 0, 0, 0, 0, 0, 0, 0, 0, 0, 0, 0, 0, 0, 0, 0, 0, 0, 0, 0, 0, 0
0, 0, 14, 0, 3, 9, 13, 15, 39, 58, 128, 76, 142, 141, 194, 198, 202, 209, 221, 263, 251, 242, 283, 242, 229, 264, 254, 216, 256, 208, 224, 212, 143, 158, 156, 172, 136, 124, 115, 100, 106, 94, 51, 62, 27, 18, 0, 0, 0, 0, 0, 0, 0, 0, 0, 0, 0, 0, 0, 0, 0, 0, 0, 0, 0, 0, 0, 0, 0, 0, 0, 0, 0, 0, 0, 0, 0, 0, 0, 0, 0, 0, 0, 0, 0, 0, 0, 0, 0, 0, 0, 0, 0, 0, 0, 0, 0, 0, 0, 0, 0, 0, 0, 0, 0, 0
0, 0, 15, 2, 3, 6, 14, 25, 35, 55, 111, 96, 112, 150, 165, 184, 189, 208, 220, 238, 268, 229, 246, 259, 220, 237, 218, 237, 226, 214, 242, 179, 172, 171, 153, 153, 141, 119, 103, 87, 88, 67, 55, 53, 46, 19, 1, 0, 0, 0, 0, 0, 0, 0, 0, 0, 0, 0, 0, 0, 0, 0, 0, 0, 0, 0, 0, 0, 0, 0, 0, 0, 0, 0, 0, 0, 0, 0, 0, 0, 0, 0, 0, 0, 0, 0, 0, 0, 0, 0, 0, 0, 0, 0, 0, 0, 0, 0, 0, 0, 0, 0, 0, 0, 0, 0
0, 0, 16, 4, 2, 6, 16, 19, 37, 66, 125, 99, 129, 155, 180, 194, 176, 227, 250, 239, 263, 224, 235, 250, 243, 246, 257, 210, 195, 242, 200, 196, 193, 162, 164, 138, 114, 126, 115, 97, 89, 82, 73, 55, 32, 21, 0, 0, 0, 0, 0, 0, 0, 0, 0, 0, 0, 0, 0, 0, 0, 0, 0, 0, 0, 0, 0, 0, 0, 0, 0, 0, 0, 0, 0, 0, 0, 0, 0, 0, 0, 0, 0, 0, 0, 0, 0, 0, 0, 0, 0, 0, 0, 0, 0, 0, 0, 0, 0, 0, 0, 0, 0, 0, 0, 0
0, 0, 17, 5, 5, 9, 11, 22, 33, 56, 108, 105, 104, 161, 190, 183, 178, 203, 223, 248, 261, 242, 266, 284, 231, 249, 210, 229, 216, 233, 201, 195, 173, 169, 175, 174, 151, 104, 119, 110, 97, 83, 62, 39, 30, 23, 1, 0, 0, 0, 0, 0, 0, 0, 0, 0, 0, 0, 0, 0, 0, 0, 0, 0, 0, 0, 0, 0, 0, 0, 0, 0, 0, 0, 0, 0, 0, 0, 0, 0, 0, 0, 0, 0, 0, 0, 0, 0, 0, 0, 0, 0, 0, 0, 0, 0, 0, 0, 0, 0, 0, 0, 0, 0, 0, 0
0, 0, 18, 6, 4, 7, 25, 29, 37, 67, 119, 96, 122, 154, 142, 206, 222, 212, 237, 256, 218, 255, 238, 227, 255, 231, 216, 221, 224, 172, 177, 181, 172, 149, 158, 171, 134, 115, 107, 100, 88, 76, 69, 55, 44, 19, 0, 0, 0, 0, 0, 0, 0, 0, 0, 0, 0, 0, 0, 0, 0, 0, 0, 0, 0, 0, 0, 0, 0, 0, 0, 0, 0, 0, 0, 0, 0, 0, 0, 0, 0, 0, 0, 0, 0, 0, 0, 0, 0, 0, 0, 0, 0, 0, 0, 0, 0, 0, 0, 0, 0, 0, 0, 0, 0, 0
0, 0, 19, 3, 2, 6, 14, 26, 35, 58, 111, 94, 133, 123, 191, 197, 202, 233, 211, 237, 265, 243, 231, 258, 228, 265, 222, 229, 197, 227, 205, 163, 189, 142, 163, 192, 133, 103, 126, 96, 88, 83, 71, 56, 39, 22, 1, 0, 0, 0, 0, 0, 0, 0, 0, 0, 0, 0, 0, 0, 0, 0, 0, 0, 0, 0, 0, 0, 0, 0, 0, 0, 0, 0, 0, 0, 0, 0, 0, 0, 0, 0, 0, 0, 0, 0, 0, 0, 0, 0, 0, 0, 0, 0, 0, 0, 0, 0, 0, 0, 0, 0, 0, 0, 0, 0
0, 0, 20, 0, 5, 6, 13, 23, 35, 67, 116, 96, 106, 132, 189, 182, 212, 210, 229, 253, 238, 255, 240, 247, 260, 247, 228, 204, 232, 199, 187, 198, 180, 143, 142, 163, 128, 124, 96, 105, 73, 92, 84, 51, 43, 25, 0, 0, 0, 0, 0, 0, 0, 0, 0, 0, 0, 0, 0, 0, 0, 0, 0, 0, 0, 0, 0, 0, 0, 0, 0, 0, 0, 0, 0, 0, 0, 0, 0, 0, 0, 0, 0, 0, 0, 0, 0, 0, 0, 0, 0, 0, 0, 0, 0, 0, 0, 0, 0, 0, 0, 0, 0, 0, 0, 0
0, 0, 21, 1, 2, 9, 19, 19, 37, 66, 125, 98, 148, 128, 173, 193, 202, 219, 224, 248, 276, 267, 258, 258, 231, 236, 229, 212, 228, 219, 198, 202, 203, 162, 166, 157, 123, 157, 124, 104, 75, 75, 59, 49, 41, 15, 2, 0, 0, 0, 0, 0, 0, 0, 0, 0, 0, 0, 0, 0, 0, 0, 0, 0, 0, 0, 0, 0, 0, 0, 0, 0, 0, 0, 0, 0, 0, 0, 0, 0, 0, 0, 0, 0, 0, 0, 0, 0, 0, 0, 0, 0, 0, 0, 0, 0, 0, 0, 0, 0, 0, 0, 0, 0, 0, 0
0, 0, 22, 3, 3, 14, 22, 28, 38, 66, 101, 110, 109, 134, 165, 189, 237, 222, 235, 238, 251, 263, 239, 251, 233, 273, 218, 225, 237, 228, 213, 200, 187, 167, 166, 129, 135, 143, 104, 107, 100, 73, 84, 46, 32, 29, 0, 0, 0, 0, 0, 0, 0, 0, 0, 0, 0, 0, 0, 0, 0, 0, 0, 0, 0, 0, 0, 0, 0, 0, 0, 0, 0, 0, 0, 0, 0, 0, 0, 0, 0, 0, 0, 0, 0, 0, 0, 0, 0, 0, 0, 0, 0, 0, 0, 0, 0, 0, 0, 0, 0, 0, 0, 0, 0, 0
0, 0, 23, 5, 3, 7, 15, 21, 34, 50, 111, 92, 112, 147, 180, 204, 199, 216, 209, 242, 272, 245, 248, 225, 235, 238, 217, 212, 236, 213, 172, 192, 174, 168, 156, 150, 138, 130, 111, 101, 102, 71, 73, 61, 41, 26, 0, 0, 0, 0, 0, 0, 0, 0, 0, 0, 0, 0, 0, 0, 0, 0, 0, 0, 0, 0, 0, 0, 0, 0, 0, 0, 0, 0, 0, 0, 0, 0, 0, 0, 0, 0, 0, 0, 0, 0, 0, 0, 0, 0, 0, 0, 0, 0, 0, 0, 0, 0, 0, 0, 0, 0, 0, 0, 0, 0
0, 0, 24, 4, 3, 9, 21, 35, 36, 65, 126, 105, 107, 144, 139, 181, 192, 224, 226, 275, 273, 284, 249, 246, 239, 245, 209, 217, 212, 189, 211, 185, 185, 181, 165, 147, 167, 125, 110, 90, 88, 71, 70, 63, 50, 30, 0, 0, 0, 0, 0, 0, 0, 0, 0, 0, 0, 0, 0, 0, 0, 0, 0, 0, 0, 0, 0, 0, 0, 0, 0, 0, 0, 0, 0, 0, 0, 0, 0, 0, 0, 0, 0, 0, 0, 0, 0, 0, 0, 0, 0, 0, 0, 0, 0, 0, 0, 0, 0, 0, 0, 0, 0, 0, 0, 0
0, 0, 25, 0, 3, 12, 14, 23, 36, 38, 112, 119, 114, 178, 166, 189, 231, 194, 249, 250, 232, 267, 249, 241, 270, 250, 218, 216, 208, 224, 222, 172, 190, 176, 175, 146, 162, 113, 110, 103, 70, 71, 68, 46, 41, 30, 0, 0, 0, 0, 0, 0, 0, 0, 0, 0, 0, 0, 0, 0, 0, 0, 0, 0, 0, 0, 0, 0, 0, 0, 0, 0, 0, 0, 0, 0, 0, 0, 0, 0, 0, 0, 0, 0, 0, 0, 0, 0, 0, 0, 0, 0, 0, 0, 0, 0, 0, 0, 0, 0, 0, 0, 0, 0, 0, 0
0, 0, 26, 0, 5, 7, 8, 27, 56, 65, 107, 80, 116, 139, 166, 185, 187, 187, 223, 247, 221, 254, 251, 251, 230, 253, 242, 224, 231, 191, 173, 196, 196, 174, 167, 150, 162, 143, 107, 114, 94, 81, 69, 51, 36, 18, 1, 0, 0, 0, 0, 0, 0, 0, 0, 0, 0, 0, 0, 0, 0, 0, 0, 0, 0, 0, 0, 0, 0, 0, 0, 0, 0, 0, 0, 0, 0, 0, 0, 0, 0, 0, 0, 0, 0, 0, 0, 0, 0, 0, 0, 0, 0, 0, 0, 0, 0, 0, 0, 0, 0, 0, 0, 0, 0, 0
0, 0, 27, 3, 5, 9, 15, 29, 32, 62, 111, 96, 112, 159, 145, 202, 167, 208, 226, 298, 234, 211, 232, 244, 280, 232, 227, 226, 227, 197, 218, 191, 173, 155, 168, 123, 148, 138, 97, 85, 106, 88, 64, 42, 35, 19, 0, 0, 0, 0, 0, 0, 0, 0, 0, 0, 0, 0, 0, 0, 0, 0, 0, 0, 0, 0, 0, 0, 0, 0, 0, 0, 0, 0, 0, 0, 0, 0, 0, 0, 0, 0, 0, 0, 0, 0, 0, 0, 0, 0, 0, 0, 0, 0, 0, 0, 0, 0, 0, 0, 0, 0, 0, 0, 0, 0
0, 0, 28, 3, 5, 3, 18, 19, 41, 49, 118, 83, 116, 158, 150, 197, 212, 230, 238, 215, 234, 245, 238, 252, 248, 250, 226, 222, 225, 210, 192, 196, 185, 161, 171, 122, 140, 122, 102, 108, 110, 68, 71, 60, 46, 18, 0, 0, 0, 0, 0, 0, 0, 0, 0, 0, 0, 0, 0, 0, 0, 0, 0, 0, 0, 0, 0, 0, 0, 0, 0, 0, 0, 0, 0, 0, 0, 0, 0, 0, 0, 0, 0, 0, 0, 0, 0, 0, 0, 0, 0, 0, 0, 0, 0, 0, 0, 0, 0, 0, 0, 0, 0, 0, 0, 0
0, 0, 29, 3, 4, 7, 20, 22, 48, 49, 127, 100, 123, 146, 172, 198, 210, 212, 206, 253, 270, 269, 252, 215, 214, 232, 225, 251, 197, 208, 204, 182, 177, 162, 186, 160, 162, 150, 112, 94, 88, 78, 61, 62, 47, 30, 2, 0, 0, 0, 0, 0, 0, 0, 0, 0, 0, 0, 0, 0, 0, 0, 0, 0, 0, 0, 0, 0, 0, 0, 0, 0, 0, 0, 0, 0, 0, 0, 0, 0, 0, 0, 0, 0, 0, 0, 0, 0, 0, 0, 0, 0, 0, 0, 0, 0, 0, 0, 0, 0, 0, 0, 0, 0, 0, 0
0, 0, 30, 0, 3, 11, 22, 22, 40, 49, 114, 100, 109, 145, 174, 215, 206, 219, 243, 236, 246, 281, 241, 263, 232, 229, 227, 209, 218, 210, 186, 188, 168, 199, 158, 174, 146, 103, 99, 124, 92, 63, 73, 56, 43, 20, 3, 0, 0, 0, 0, 0, 0, 0, 0, 0, 0, 0, 0, 0, 0, 0, 0, 0, 0, 0, 0, 0, 0, 0, 0, 0, 0, 0, 0, 0, 0, 0, 0, 0, 0, 0, 0, 0, 0, 0, 0, 0, 0, 0, 0, 0, 0, 0, 0, 0, 0, 0, 0, 0, 0, 0, 0, 0, 0, 0
0, 0, 31, 0, 7, 9, 17, 20, 38, 60, 120, 72, 117, 170, 190, 207, 204, 203, 233, 233, 269, 228, 230, 246, 260, 242, 234, 230, 235, 206, 215, 181, 173, 173, 154, 143, 145, 116, 110, 117, 76, 84, 58, 59, 37, 14, 0, 0, 0, 0, 0, 0, 0, 0, 0, 0, 0, 0, 0, 0, 0, 0, 0, 0, 0, 0, 0, 0, 0, 0, 0, 0, 0, 0, 0, 0, 0, 0, 0, 0, 0, 0, 0, 0, 0, 0, 0, 0, 0, 0, 0, 0, 0, 0, 0, 0, 0, 0, 0, 0, 0, 0, 0, 0, 0, 0
0, 0, 32, 2, 1, 7, 16, 31, 47, 48, 129, 90, 135, 149, 141, 203, 190, 227, 252, 216, 246, 294, 219, 251, 256, 234, 261, 215, 239, 201, 213, 188, 156, 152, 184, 156, 136, 108, 122, 92, 86, 84, 71, 54, 30, 23, 0, 0, 0, 0, 0, 0, 0, 0, 0, 0, 0, 0, 0, 0, 0, 0, 0, 0, 0, 0, 0, 0, 0, 0, 0, 0, 0, 0, 0, 0, 0, 0, 0, 0, 0, 0, 0, 0, 0, 0, 0, 0, 0, 0, 0, 0, 0, 0, 0, 0, 0, 0, 0, 0, 0, 0, 0, 0, 0, 0
0, 0, 33, 4, 4, 8, 13, 25, 48, 52, 126, 108, 105, 158, 147, 176, 225, 216, 222, 246, 267, 255, 249, 248, 238, 237, 221, 254, 208, 200, 199, 193, 179, 196, 162, 151, 140, 119, 107, 100, 84, 82, 74, 61, 59, 19, 0, 0, 0, 0, 0, 0, 0, 0, 0, 0, 0, 0, 0, 0, 0, 0, 0, 0, 0, 0, 0, 0, 0, 0, 0, 0, 0, 0, 0, 0, 0, 0, 0, 0, 0, 0, 0, 0, 0, 0, 0, 0, 0, 0, 0, 0, 0, 0, 0, 0, 0, 0, 0, 0, 0, 0, 0, 0, 0, 0
0, 0, 34, 2, 3, 3, 19, 22, 47, 56, 105, 85, 108, 148, 173, 198, 173, 261, 220, 238, 254, 258, 237, 239, 261, 264, 220, 216, 232, 206, 206, 195, 184, 173, 176, 157, 125, 145, 112, 97, 86, 67, 72, 56, 41, 28, 1, 0, 0, 0, 0, 0, 0, 0, 0, 0, 0, 0, 0, 0, 0, 0, 0, 0, 0, 0, 0, 0, 0, 0, 0, 0, 0, 0, 0, 0, 0, 0, 0, 0, 0, 0, 0, 0, 0, 0, 0, 0, 0, 0, 0, 0, 0, 0, 0, 0, 0, 0, 0, 0, 0, 0, 0, 0, 0, 0
0, 0, 35, 0, 3, 10, 11, 24, 32, 52, 131, 66, 130, 154, 166, 182, 220, 223, 211, 258, 278, 230, 264, 277, 244, 254, 233, 202, 227, 186, 155, 174, 173, 158, 162, 156, 164, 122, 140, 108, 85, 100, 61, 46, 46, 20, 0, 0, 0, 0, 0, 0, 0, 0, 0, 0, 0, 0, 0, 0, 0, 0, 0, 0, 0, 0, 0, 0, 0, 0, 0, 0, 0, 0, 0, 0, 0, 0, 0, 0, 0, 0, 0, 0, 0, 0, 0, 0, 0, 0, 0, 0, 0, 0, 0, 0, 0, 0, 0, 0, 0, 0, 0, 0, 0, 0
0, 0, 36, 5, 2, 5, 16, 28, 39, 59, 103, 101, 109, 162, 181, 190, 203, 214, 221, 228, 223, 249, 229, 276, 203, 256, 232, 218, 215, 194, 193, 197, 168, 143, 168, 142, 155, 117, 128, 105, 84, 81, 74, 62, 44, 29, 0, 0, 0, 0, 0, 0, 0, 0, 0, 0, 0, 0, 0, 0, 0, 0, 0, 0, 0, 0, 0, 0, 0, 0, 0, 0, 0, 0, 0, 0, 0, 0, 0, 0, 0, 0, 0, 0, 0, 0, 0, 0, 0, 0, 0, 0, 0, 0, 0, 0, 0, 0, 0, 0, 0, 0, 0, 0, 0, 0
0, 0, 37, 2, 4, 7, 18, 23, 36, 70, 115, 104, 116, 151, 169, 201, 163, 224, 225, 281, 217, 254, 236, 273, 302, 223, 253, 214, 207, 226, 179, 199, 197, 177, 176, 183, 152, 129, 107, 88, 82, 81, 67, 43, 44, 15, 2, 0, 0, 0, 0, 0, 0, 0, 0, 0, 0, 0, 0, 0, 0, 0, 0, 0, 0, 0, 0, 0, 0, 0, 0, 0, 0, 0, 0, 0, 0, 0, 0, 0, 0, 0, 0, 0, 0, 0, 0, 0, 0, 0, 0, 0, 0, 0, 0, 0, 0, 0, 0, 0, 0, 0, 0, 0, 0, 0
0, 0, 38, 6, 6, 5, 15, 25, 40, 58, 109, 104, 113, 143, 180, 173, 227, 249, 237, 273, 273, 230, 244, 253, 246, 248, 241, 213, 202, 204, 191, 182, 171, 191, 135, 132, 144, 129, 121, 104, 103, 70, 72, 50, 45, 19, 3, 0, 0, 0, 0, 0, 0, 0, 0, 0, 0, 0, 0, 0, 0, 0, 0, 0, 0, 0, 0, 0, 0, 0, 0, 0, 0, 0, 0, 0, 0, 0, 0, 0, 0, 0, 0, 0, 0, 0, 0, 0, 0, 0, 0, 0, 0, 0, 0, 0, 0, 0, 0, 0, 0, 0, 0, 0, 0, 0
0, 0, 39, 1, 3, 9, 17, 25, 42, 63, 112, 99, 112, 122, 187, 183, 208, 200, 216, 252, 273, 234, 217, 257, 206, 271, 233, 207, 217, 207, 186, 214, 173, 146, 151, 175, 141, 114, 128, 104, 84, 90, 84, 53, 40, 18, 1, 0, 0, 0, 0, 0, 0, 0, 0, 0, 0, 0, 0, 0, 0, 0, 0, 0, 0, 0, 0, 0, 0, 0, 0, 0, 0, 0, 0, 0, 0, 0, 0, 0, 0, 0, 0, 0, 0, 0, 0, 0, 0, 0, 0, 0, 0, 0, 0, 0, 0, 0, 0, 0, 0, 0, 0, 0, 0, 0
0, 0, 40, 0, 5, 3, 10, 30, 46, 41, 100, 102, 114, 143, 159, 222, 227, 199, 229, 258, 240, 249, 248, 259, 236, 253, 274, 218, 234, 197, 186, 178, 171, 162, 167, 144, 132, 145, 114, 97, 84, 74, 66, 65, 36, 22, 1, 0, 0, 0, 0, 0, 0, 0, 0, 0, 0, 0, 0, 0, 0, 0, 0, 0, 0, 0, 0, 0, 0, 0, 0, 0, 0, 0, 0, 0, 0, 0, 0, 0, 0, 0, 0, 0, 0, 0, 0, 0, 0, 0, 0, 0, 0, 0, 0, 0, 0, 0, 0, 0, 0, 0, 0, 0, 0, 0
0, 0, 41, 2, 3, 6, 13, 22, 31, 51, 97, 78, 99, 116, 191, 151, 214, 179, 215, 208, 237, 232, 250, 289, 225, 228, 222, 189, 221, 205, 194, 181, 168, 183, 138, 149, 116, 128, 90, 94, 87, 71, 68, 58, 38, 26, 0, 0, 0, 0, 0, 0, 0, 0, 0, 0, 0, 0, 0, 0, 0, 0, 0, 0, 0, 0, 0, 0, 0, 0, 0, 0, 0, 0, 0, 0, 0, 0, 0, 0, 0, 0, 0, 0, 0, 0, 0, 0, 0, 0, 0, 0, 0, 0, 0, 0, 0, 0, 0, 0, 0, 0, 0, 0, 0, 0
0, 0, 42, 2, 1, 9, 11, 18, 26, 28, 74, 66, 78, 103, 124, 160, 147, 205, 169, 168, 230, 232, 187, 199, 177, 172, 182, 183, 188, 165, 192, 155, 122, 129, 126, 107, 107, 95, 93, 77, 68, 69, 55, 52, 29, 13, 1, 0, 0, 0, 0, 0, 0, 0, 0, 0, 0, 0, 0, 0, 0, 0, 0, 0, 0, 0, 0, 0, 0, 0, 0, 0, 0, 0, 0, 0, 0, 0, 0, 0, 0, 0, 0, 0, 0, 0, 0, 0, 0, 0, 0, 0, 0, 0, 0, 0, 0, 0, 0, 0, 0, 0, 0, 0, 0, 0
0, 0, 43, 0, 0, 3, 12, 15, 19, 37, 57, 53, 62, 68, 95, 119, 101, 112, 138, 147, 152, 151, 148, 164, 152, 151, 144, 146, 135, 155, 116, 110, 122, 119, 97, 106, 76, 78, 80, 68, 62, 55, 44, 31, 30, 19, 1, 0, 0, 0, 0, 0, 0, 0, 0, 0, 0, 0, 0, 0, 0, 0, 0, 0, 0, 0, 0, 0, 0, 0, 0, 0, 0, 0, 0, 0, 0, 0, 0, 0, 0, 0, 0, 0, 0, 0, 0, 0, 0, 0, 0, 0, 0, 0, 0, 0, 0, 0, 0, 0, 0, 0, 0, 0, 0, 0
0, 0, 44, 0, 2, 0, 7, 9, 21, 24, 51, 36, 49, 71, 66, 78, 80, 93, 86, 109, 134, 141, 134, 130, 127, 111, 114, 102, 125, 102, 79, 96, 96, 84, 95, 83, 69, 76, 78, 69, 37, 32, 39, 30, 23, 12, 0, 0, 0, 0, 0, 0, 0, 0, 0, 0, 0, 0, 0, 0, 0, 0, 0, 0, 0, 0, 0, 0, 0, 0, 0, 0, 0, 0, 0, 0, 0, 0, 0, 0, 0, 0, 0, 0, 0, 0, 0, 0, 0, 0, 0, 0, 0, 0, 0, 0, 0, 0, 0, 0, 0, 0, 0, 0, 0, 0
0, 0, 45, 3, 1, 3, 4, 4, 12, 13, 35, 30, 44, 46, 45, 57, 70, 73, 90, 70, 82, 74, 91, 104, 112, 102, 96, 88, 99, 80, 101, 80, 83, 72, 84, 61, 67, 55, 57, 48, 43, 41, 36, 20, 25, 16, 1, 0, 0, 0, 0, 0, 0, 0, 0, 0, 0, 0, 0, 0, 0, 0, 0, 0, 0, 0, 0, 0, 0, 0, 0, 0, 0, 0, 0, 0, 0, 0, 0, 0, 0, 0, 0, 0, 0, 0, 0, 0, 0, 0, 0, 0, 0, 0, 0, 0, 0, 0, 0, 0, 0, 0, 0, 0, 0, 0
0, 0, 46, 1, 1, 3, 1, 7, 7, 12, 28, 14, 25, 24, 35, 46, 40, 51, 61, 61, 71, 84, 76, 83, 66, 80, 87, 83, 76, 71, 83, 62, 80, 53, 53, 43, 55, 58, 41, 38, 29, 33, 25, 22, 20, 14, 0, 0, 0, 0, 0, 0, 0, 0, 0, 0, 0, 0, 0, 0, 0, 0, 0, 0, 0, 0, 0, 0, 0, 0, 0, 0, 0, 0, 0, 0, 0, 0, 0, 0, 0, 0, 0, 0, 0, 0, 0, 0, 0, 0, 0, 0, 0, 0, 0, 0, 0, 0, 0, 0, 0, 0, 0, 0, 0, 0
0, 0, 47, 0, 0, 2, 1, 2, 4, 4, 15, 9, 11, 16, 27, 30, 42, 38, 43, 54, 44, 61, 74, 62, 59, 46, 70, 54, 47, 42, 56, 53, 52, 49, 43, 52, 59, 40, 34, 44, 30, 17, 22, 18, 17, 4, 0, 0, 0, 0, 0, 0, 0, 0, 0, 0, 0, 0, 0, 0, 0, 0, 0, 0, 0, 0, 0, 0, 0, 0, 0, 0, 0, 0, 0, 0, 0, 0, 0, 0, 0, 0, 0, 0, 0, 0, 0, 0, 0, 0, 0, 0, 0, 0, 0, 0, 0, 0, 0, 0, 0, 0, 0, 0, 0, 0
0, 0, 48, 1, 1, 2, 0, 2, 1, 3, 13, 7, 9, 9, 24, 27, 20, 24, 33, 46, 47, 44, 55, 60, 56, 64, 54, 64, 54, 49, 61, 63, 55, 54, 55, 39, 43, 32, 33, 30, 30, 23, 15, 18, 11, 10, 0, 0, 0, 0, 0, 0, 0, 0, 0, 0, 0, 0, 0, 0, 0, 0, 0, 0, 0, 0, 0, 0, 0, 0, 0, 0, 0, 0, 0, 0, 0, 0, 0, 0, 0, 0, 0, 0, 0, 0, 0, 0, 0, 0, 0, 0, 0, 0, 0, 0, 0, 0, 0, 0, 0, 0, 0, 0, 0, 0
0, 0, 49, 0, 0, 0, 0, 2, 1, 3, 15, 2, 5, 14, 18, 16, 21, 22, 47, 27, 36, 42, 37, 41, 47, 49, 55, 49, 50, 56, 53, 66, 47, 47, 52, 36, 39, 21, 28, 31, 32, 16, 25, 16, 10, 7, 0, 0, 0, 0, 0, 0, 0, 0, 0, 0, 0, 0, 0, 0, 0, 0, 0, 0, 0, 0, 0, 0, 0, 0, 0, 0, 0, 0, 0, 0, 0, 0, 0, 0, 0, 0, 0, 0, 0, 0, 0, 0, 0, 0, 0, 0, 0, 0, 0, 0, 0, 0, 0, 0, 0, 0, 0, 0, 0, 0
0, 0, 50, 0, 0, 0, 0, 0, 0, 1, 11, 8, 3, 14, 18, 25, 30, 18, 42, 35, 34, 29, 48, 38, 52, 45, 52, 62, 45, 45, 52, 52, 44, 38, 32, 46, 36, 27, 44, 26, 31, 24, 16, 24, 7, 8, 0, 0, 0, 0, 0, 0, 0, 0, 0, 0, 0, 0, 0, 0, 0, 0, 0, 0, 0, 0, 0, 0, 0, 0, 0, 0, 0, 0, 0, 0, 0, 0, 0, 0, 0, 0, 0, 0, 0, 0, 0, 0, 0, 0, 0, 0, 0, 0, 0, 0, 0, 0, 0, 0, 0, 0, 0, 0, 0, 0
0, 0, 51, 2, 0, 0, 0, 1, 0, 2, 17, 5, 5, 15, 14, 21, 26, 35, 35, 44, 44, 65, 56, 48, 52, 63, 63, 60, 49, 33, 60, 56, 54, 38, 34, 41, 41, 42, 46, 36, 27, 28, 19, 25, 14, 5, 0, 0, 0, 0, 0, 0, 0, 0, 0, 0, 0, 0, 0, 0, 0, 0, 0, 0, 0, 0, 0, 0, 0, 0, 0, 0, 0, 0, 0, 0, 0, 0, 0, 0, 0, 0, 0, 0, 0, 0, 0, 0, 0, 0, 0, 0, 0, 0, 0, 0, 0, 0, 0, 0, 0, 0, 0, 0, 0, 0
0, 0, 52, 1, 0, 1, 1, 2, 6, 4, 23, 10, 8, 25, 23, 37, 18, 41, 53, 37, 62, 71, 63, 54, 63, 67, 55, 72, 66, 55, 47, 59, 58, 60, 49, 44, 56, 42, 35, 31, 32, 30, 15, 23, 16, 8, 0, 0, 0, 0, 0, 0, 0, 0, 0, 0, 0, 0, 0, 0, 0, 0, 0, 0, 0, 0, 0, 0, 0, 0, 0, 0, 0, 0, 0, 0, 0, 0, 0, 0, 0, 0, 0, 0, 0, 0, 0, 0, 0, 0, 0, 0, 0, 0, 0, 0, 0, 0, 0, 0, 0, 0, 0, 0, 0, 0
0, 0, 53, 0, 1, 3, 2, 2, 7, 9, 29, 27, 19, 21, 26, 50, 62, 56, 62, 67, 73, 80, 67, 66, 79, 86, 58, 82, 73, 73, 64, 71, 59, 58, 56, 59, 49, 37, 45, 44, 36, 25, 35, 17, 15, 8, 0, 0, 0, 0, 0, 0, 0, 0, 0, 0, 0, 0, 0, 0, 0, 0, 0, 0, 0, 0, 0, 0, 0, 0, 0, 0, 0, 0, 0, 0, 0, 0, 0, 0, 0, 0, 0, 0, 0, 0, 0, 0, 0, 0, 0, 0, 0, 0, 0, 0, 0, 0, 0, 0, 0, 0, 0, 0, 0, 0
0, 0, 54, 2, 0, 0, 4, 8, 11, 15, 46, 20, 35, 39, 53, 67, 58, 68, 74, 64, 84, 95, 92, 104, 107, 82, 111, 85, 107, 89, 93, 100, 65, 67, 72, 74, 55, 49, 48, 51, 28, 43, 34, 33, 23, 6, 0, 0, 0, 0, 0, 0, 0, 0, 0, 0, 0, 0, 0, 0, 0, 0, 0, 0, 0, 0, 0, 0, 0, 0, 0, 0, 0, 0, 0, 0, 0, 0, 0, 0, 0, 0, 0, 0, 0, 0, 0, 0, 0, 0, 0, 0, 0, 0, 0, 0, 0, 0, 0, 0, 0, 0, 0, 0, 0, 0
0, 0, 55, 0, 0, 4, 4, 5, 10, 22, 54, 40, 55, 48, 68, 90, 115, 97, 114, 105, 115, 125, 103, 105, 109, 121, 122, 135, 110, 95, 134, 94, 89, 80, 72, 63, 76, 51, 74, 56, 61, 39, 34, 27, 24, 15, 1, 0, 0, 0, 0, 0, 0, 0, 0, 0, 0, 0, 0, 0, 0, 0, 0, 0, 0, 0, 0, 0, 0, 0, 0, 0, 0, 0, 0, 0, 0, 0, 0, 0, 0, 0, 0, 0, 0, 0, 0, 0, 0, 0, 0, 0, 0, 0, 0, 0, 0, 0, 0, 0, 0, 0, 0, 0, 0, 0
0, 0, 56, 0, 1, 3, 3, 17, 26, 34, 74, 56, 51, 95, 96, 118, 106, 109, 150, 151, 148, 160, 158, 168, 159, 155, 152, 127, 128, 126, 116, 105, 118, 105, 113, 95, 92, 77, 72, 63, 88, 60, 55, 34, 17, 13, 1, 0, 0, 0, 0, 0, 0, 0, 0, 0, 0, 0, 0, 0, 0, 0, 0, 0, 0, 0, 0, 0, 0, 0, 0, 0, 0, 0, 0, 0, 0, 0, 0, 0, 0, 0, 0, 0, 0, 0, 0, 0, 0, 0, 0, 0, 0, 0, 0, 0, 0, 0, 0, 0, 0, 0, 0, 0, 0, 0
0, 0, 57, 0, 2, 8, 10, 16, 28, 45, 81, 81, 85, 100, 141, 136, 153, 136, 181, 174, 199, 193, 176, 224, 170, 196, 189, 175, 172, 183, 174, 142, 141, 130, 126, 124, 105, 106, 98, 82, 79, 74, 61, 34, 28, 12, 0, 0, 0, 0, 0, 0, 0, 0, 0, 0, 0, 0, 0, 0, 0, 0, 0, 0, 0, 0, 0, 0, 0, 0, 0, 0, 0, 0, 0, 0, 0, 0, 0, 0, 0, 0, 0, 0, 0, 0, 0, 0, 0, 0, 0, 0, 0, 0, 0, 0, 0, 0, 0, 0, 0, 0, 0, 0, 0, 0
0, 0, 58, 2, 4, 7, 15, 26, 32, 49, 89, 86, 113, 142, 159, 192, 214, 192, 177, 256, 216, 222, 249, 249, 250, 241, 240, 217, 214, 211, 165, 219, 157, 155, 132, 140, 137, 109, 115, 85, 72, 70, 61, 40, 37, 26, 2, 0, 0, 0, 0, 0, 0, 0, 0, 0, 0, 0, 0, 0, 0, 0, 0, 0, 0, 0, 0, 0, 0, 0, 0, 0, 0, 0, 0, 0, 0, 0, 0, 0, 0, 0, 0, 0, 0, 0, 0, 0, 0, 0, 0, 0, 0, 0, 0, 0, 0, 0, 0, 0, 0, 0, 0, 0, 0, 0
0, 0, 59, 0, 4, 9, 16, 24, 48, 66, 102, 101, 117, 148, 164, 184, 191, 218, 241, 206, 270, 249, 274, 272, 275, 265, 258, 216, 215, 195, 217, 179, 168, 178, 155, 142, 144, 126, 116, 103, 85, 86, 72, 38, 35, 29, 3, 0, 0, 0, 0, 0, 0, 0, 0, 0, 0, 0, 0, 0, 0, 0, 0, 0, 0, 0, 0, 0, 0, 0, 0, 0, 0, 0, 0, 0, 0, 0, 0, 0, 0, 0, 0, 0, 0, 0, 0, 0, 0, 0, 0, 0, 0, 0, 0, 0, 0, 0, 0, 0, 0, 0, 0, 0, 0, 0
0, 0, 60, 0, 6, 3, 9, 21, 42, 48, 118, 98, 122, 146, 175, 193, 193, 208, 221, 259, 253, 265, 254, 263, 268, 217, 223, 231, 211, 203, 215, 191, 183, 177, 173, 156, 137, 138, 112, 110, 105, 88, 66, 63, 36, 15, 1, 0, 0, 0, 0, 0, 0, 0, 0, 0, 0, 0, 0, 0, 0, 0, 0, 0, 0, 0, 0, 0, 0, 0, 0, 0, 0, 0, 0, 0, 0, 0, 0, 0, 0, 0, 0, 0, 0, 0, 0, 0, 0, 0, 0, 0, 0, 0, 0, 0, 0, 0, 0, 0, 0, 0, 0, 0, 0, 0
0, 0, 61, 3, 4, 10, 10, 30, 34, 67, 107, 97, 113, 148, 176, 185, 186, 208, 244, 248, 232, 246, 241, 262, 267, 228, 212, 228, 226, 212, 183, 216, 181, 193, 144, 125, 116, 120, 116, 97, 100, 100, 65, 51, 41, 26, 2, 0, 0, 0, 0, 0, 0, 0, 0, 0, 0, 0, 0, 0, 0, 0, 0, 0, 0, 0, 0, 0, 0, 0, 0, 0, 0, 0, 0, 0, 0, 0, 0, 0, 0, 0, 0, 0, 0, 0, 0, 0, 0, 0, 0, 0, 0, 0, 0, 0, 0, 0, 0, 0, 0, 0, 0, 0, 0, 0
0, 0, 62, 2, 5, 9, 9, 31, 42, 64, 122, 84, 124, 157, 172, 190, 204, 240, 215, 238, 240, 264, 258, 240, 258, 236, 228, 225, 245, 199, 202, 200, 169, 190, 138, 142, 144, 114, 134, 91, 100, 92, 75, 74, 33, 9, 1, 0, 0, 0, 0, 0, 0, 0, 0, 0, 0, 0, 0, 0, 0, 0, 0, 0, 0, 0, 0, 0, 0, 0, 0, 0, 0, 0, 0, 0, 0, 0, 0, 0, 0, 0, 0, 0, 0, 0, 0, 0, 0, 0, 0, 0, 0, 0, 0, 0, 0, 0, 0, 0, 0, 0, 0, 0, 0, 0
0, 0, 63, 4, 3, 7, 11, 29, 35, 43, 102, 77, 125, 157, 176, 215, 225, 225, 239, 245, 218, 254, 252, 248, 253, 237, 241, 213, 248, 221, 190, 203, 177, 206, 180, 139, 149, 118, 132, 108, 81, 73, 75, 64, 42, 12, 1, 0, 0, 0, 0, 0, 0, 0, 0, 0, 0, 0, 0, 0, 0, 0, 0, 0, 0, 0, 0, 0, 0, 0, 0, 0, 0, 0, 0, 0, 0, 0, 0, 0, 0, 0, 0, 0, 0, 0, 0, 0, 0, 0, 0, 0, 0, 0, 0, 0, 0, 0, 0, 0, 0, 0, 0, 0, 0, 0
0, 0, 64, 5, 1, 9, 11, 28, 34, 68, 107, 108, 108, 164, 177, 217, 188, 204, 240, 274, 250, 270, 247, 250, 248, 248, 236, 203, 235, 204, 195, 200, 166, 184, 141, 146, 140, 133, 119, 96, 80, 83, 53, 56, 44, 18, 2, 0, 0, 0, 0, 0, 0, 0, 0, 0, 0, 0, 0, 0, 0, 0, 0, 0, 0, 0, 0, 0, 0, 0, 0, 0, 0, 0, 0, 0, 0, 0, 0, 0, 0, 0, 0, 0, 0, 0, 0, 0, 0, 0, 0, 0, 0, 0, 0, 0, 0, 0, 0, 0, 0, 0, 0, 0, 0, 0
0, 0, 65, 0, 4, 10, 19, 23, 39, 49, 116, 102, 131, 123, 142, 201, 211, 200, 221, 215, 252, 267, 245, 227, 248, 249, 209, 220, 198, 223, 182, 180, 192, 192, 159, 132, 139, 127, 108, 115, 85, 94, 76, 49, 41, 26, 0, 0, 0, 0, 0, 0, 0, 0, 0, 0, 0, 0, 0, 0, 0, 0, 0, 0, 0, 0, 0, 0, 0, 0, 0, 0, 0, 0, 0, 0, 0, 0, 0, 0, 0, 0, 0, 0, 0, 0, 0, 0, 0, 0, 0, 0, 0, 0, 0, 0, 0, 0, 0, 0, 0, 0, 0, 0, 0, 0
0, 0, 66, 2, 3, 4, 21, 29, 42, 54, 125, 109, 111, 118, 159, 185, 201, 217, 239, 210, 246, 236, 258, 249, 233, 224, 223, 211, 195, 208, 186, 179, 171, 183, 155, 126, 138, 122, 93, 91, 86, 93, 68, 54, 46, 14, 0, 0, 0, 0, 0, 0, 0, 0, 0, 0, 0, 0, 0, 0, 0, 0, 0, 0, 0, 0, 0, 0, 0, 0, 0, 0, 0, 0, 0, 0, 0, 0, 0, 0, 0, 0, 0, 0, 0, 0, 0, 0, 0, 0, 0, 0, 0, 0, 0, 0, 0, 0, 0, 0, 0, 0, 0, 0, 0, 0
0, 0, 67, 6, 3, 6, 28, 33, 38, 58, 104, 84, 114, 154, 172, 188, 213, 232, 226, 248, 249, 245, 266, 220, 237, 250, 207, 223, 208, 205, 180, 180, 170, 189, 181, 146, 126, 127, 91, 94, 89, 74, 82, 56, 32, 16, 2, 0, 0, 0, 0, 0, 0, 0, 0, 0, 0, 0, 0, 0, 0, 0, 0, 0, 0, 0, 0, 0, 0, 0, 0, 0, 0, 0, 0, 0, 0, 0, 0, 0, 0, 0, 0, 0, 0, 0, 0, 0, 0, 0, 0, 0, 0, 0, 0, 0, 0, 0, 0, 0, 0, 0, 0, 0, 0, 0
0, 0, 68, 7, 2, 5, 10, 23, 39, 55, 98, 87, 115, 151, 163, 221, 252, 213, 232, 240, 252, 243, 294, 256, 282, 232, 240, 207, 230, 207, 217, 189, 186, 167, 163, 170, 158, 107, 132, 88, 83, 92, 67, 57, 35, 28, 4, 0, 0, 0, 0, 0, 0, 0, 0, 0, 0, 0, 0, 0, 0, 0, 0, 0, 0, 0, 0, 0, 0, 0, 0, 0, 0, 0, 0, 0, 0, 0, 0, 0, 0, 0, 0, 0, 0, 0, 0, 0, 0, 0, 0, 0, 0, 0, 0, 0, 0, 0, 0, 0, 0, 0, 0, 0, 0, 0
0, 0, 69, 5, 5, 5, 18, 24, 36, 46, 114, 87, 95, 137, 159, 202, 198, 221, 211, 255, 234, 255, 257, 248, 231, 244, 214, 247, 236, 222, 197, 176, 183, 183, 170, 128, 119, 129, 116, 99, 100, 76, 68, 44, 27, 21, 1, 0, 0, 0, 0, 0, 0, 0, 0, 0, 0, 0, 0, 0, 0, 0, 0, 0, 0, 0, 0, 0, 0, 0, 0, 0, 0, 0, 0, 0, 0, 0, 0, 0, 0, 0, 0, 0, 0, 0, 0, 0, 0, 0, 0, 0, 0, 0, 0, 0, 0, 0, 0, 0, 0, 0, 0, 0, 0, 0
0, 0, 70, 0, 6, 7, 10, 30, 39, 58, 138, 94, 112, 132, 174, 186, 220, 215, 221, 272, 257, 227, 257, 266, 220, 217, 244, 216, 208, 185, 206, 188, 175, 164, 172, 155, 112, 122, 108, 102, 109, 66, 77, 55, 39, 12, 2, 0, 0, 0, 0, 0, 0, 0, 0, 0, 0, 0, 0, 0, 0, 0, 0, 0, 0, 0, 0, 0, 0, 0, 0, 0, 0, 0, 0, 0, 0, 0, 0, 0, 0, 0, 0, 0, 0, 0, 0, 0, 0, 0, 0, 0, 0, 0, 0, 0, 0, 0, 0, 0, 0, 0, 0, 0, 0, 0
0, 0, 71, 3, 5, 4, 13, 24, 42, 60, 118, 94, 118, 137, 140, 192, 217, 256, 255, 226, 251, 284, 242, 235, 241, 221, 219, 245, 204, 229, 186, 206, 173, 176, 151, 182, 139, 109, 132, 97, 89, 81, 55, 63, 53, 17, 0, 0, 0, 0, 0, 0, 0, 0, 0, 0, 0, 0, 0, 0, 0, 0, 0, 0, 0, 0, 0, 0, 0, 0, 0, 0, 0, 0, 0, 0, 0, 0, 0, 0, 0, 0, 0, 0, 0, 0, 0, 0, 0, 0, 0, 0, 0, 0, 0, 0, 0, 0, 0, 0, 0, 0, 0, 0, 0, 0
0, 0, 72, 2, 2, 12, 11, 23, 38, 49, 103, 71, 127, 160, 172, 214, 225, 198, 202, 213, 248, 228, 230, 252, 251, 242, 232, 230, 227, 210, 183, 195, 162, 180, 168, 145, 120, 158, 103, 112, 84, 79, 59, 56, 37, 28, 0, 0, 0, 0, 0, 0, 0, 0, 0, 0, 0, 0, 0, 0, 0, 0, 0, 0, 0, 0, 0, 0, 0, 0, 0, 0, 0, 0, 0, 0, 0, 0, 0, 0, 0, 0, 0, 0, 0, 0, 0, 0, 0, 0, 0, 0, 0, 0, 0, 0, 0, 0, 0, 0, 0, 0, 0, 0, 0, 0
0, 0, 73, 1, 5, 7, 9, 18, 29, 56, 133, 93, 129, 141, 171, 175, 232, 226, 209, 214, 217, 248, 260, 237, 209, 243, 255, 203, 210, 194, 213, 187, 192, 167, 167, 140, 144, 105, 123, 99, 102, 74, 71, 54, 41, 19, 1, 0, 0, 0, 0, 0, 0, 0, 0, 0, 0, 0, 0, 0, 0, 0, 0, 0, 0, 0, 0, 0, 0, 0, 0, 0, 0, 0, 0, 0, 0, 0, 0, 0, 0, 0, 0, 0, 0, 0, 0, 0, 0, 0, 0, 0, 0, 0, 0, 0, 0, 0, 0, 0, 0, 0, 0, 0, 0, 0
0, 0, 74, 4, 3, 12, 18, 18, 37, 63, 105, 86, 112, 147, 152, 188, 211, 232, 214, 237, 247, 231, 241, 243, 237, 260, 242, 232, 228, 182, 183, 195, 197, 173, 167, 147, 112, 135, 117, 107, 98, 83, 60, 59, 36, 24, 1, 0, 0, 0, 0, 0, 0, 0, 0, 0, 0, 0, 0, 0, 0, 0, 0, 0, 0, 0, 0, 0, 0, 0, 0, 0, 0, 0, 0, 0, 0, 0, 0, 0, 0, 0, 0, 0, 0, 0, 0, 0, 0, 0, 0, 0, 0, 0, 0, 0, 0, 0, 0, 0, 0, 0, 0, 0, 0, 0
0, 0, 75, 4, 5, 4, 15, 28, 27, 59, 131, 79, 128, 155, 148, 175, 209, 218, 231, 228, 208, 255, 267, 254, 249, 244, 224, 227, 224, 234, 195, 186, 183, 159, 196, 140, 150, 132, 108, 113, 74, 81, 57, 55, 35, 19, 1, 0, 0, 0, 0, 0, 0, 0, 0, 0, 0, 0, 0, 0, 0, 0, 0, 0, 0, 0, 0, 0, 0, 0, 0, 0, 0, 0, 0, 0, 0, 0, 0, 0, 0, 0, 0, 0, 0, 0, 0, 0, 0, 0, 0, 0, 0, 0, 0, 0, 0, 0, 0, 0, 0, 0, 0, 0, 0, 0
0, 0, 76, 2, 2, 11, 13, 27, 38, 65, 129, 94, 98, 162, 166, 205, 222, 189, 210, 230, 282, 244, 226, 259, 246, 276, 218, 231, 213, 213, 223, 204, 206, 181, 156, 139, 133, 129, 118, 91, 100, 86, 64, 66, 54, 18, 1, 0, 0, 0, 0, 0, 0, 0, 0, 0, 0, 0, 0, 0, 0, 0, 0, 0, 0, 0, 0, 0, 0, 0, 0, 0, 0, 0, 0, 0, 0, 0, 0, 0, 0, 0, 0, 0, 0, 0, 0, 0, 0, 0, 0, 0, 0, 0, 0, 0, 0, 0, 0, 0, 0, 0, 0, 0, 0, 0
0, 0, 77, 2, 4, 8, 13, 25, 51, 67, 133, 119, 115, 130, 174, 200, 226, 193, 246, 243, 246, 230, 248, 251, 246, 255, 225, 247, 191, 219, 187, 184, 198, 182, 167, 152, 130, 145, 117, 100, 115, 80, 77, 45, 51, 29, 2, 0, 0, 0, 0, 0, 0, 0, 0, 0, 0, 0, 0, 0, 0, 0, 0, 0, 0, 0, 0, 0, 0, 0, 0, 0, 0, 0, 0, 0, 0, 0, 0, 0, 0, 0, 0, 0, 0, 0, 0, 0, 0, 0, 0, 0, 0, 0, 0, 0, 0, 0, 0, 0, 0, 0, 0, 0, 0, 0
