# TOPAS Version: 3.1.p3
# Parameter File: REDLEN_small_phantom_mc_basic_3cm.txt
# Results for scorer PhantomDose
# Scored on surface: CdTeCrystal1/YPlusSurface
# X in 100 bins of 0.03332 cm
# Y in 1 bin  of 0.4 cm
# Z in 100 bins of 0.0375 cm
# SurfaceTrackCount : Sum   
# Binned by incident track energy in 100 bins of 0.00104 MeV from 0.016 MeV to 0.12 MeV
# First bin is underflow, next to last bin is overflow, last bin is for case of no incident track.
0, 0, 0, 0, 0, 0, 0, 0, 0, 0, 1, 0, 1, 1, 1, 4, 1, 1, 3, 1, 3, 2, 3, 5, 5, 4, 2, 1, 5, 4, 4, 2, 0, 3, 0, 0, 2, 1, 4, 1, 2, 1, 0, 0, 2, 0, 0, 0, 0, 0, 0, 0, 0, 0, 0, 0, 0, 0, 0, 0, 0, 0, 0, 0, 0, 0, 0, 0, 0, 0, 0, 0, 0, 0, 0, 0, 0, 0, 0, 0, 0, 0, 0, 0, 0, 0, 0, 0, 0, 0, 0, 0, 0, 0, 0, 0, 0, 0, 0, 0, 0, 0, 0, 0, 0, 0
0, 0, 1, 0, 0, 0, 0, 0, 0, 1, 2, 0, 1, 0, 1, 1, 1, 1, 2, 0, 8, 3, 3, 1, 5, 4, 3, 2, 4, 3, 1, 4, 3, 5, 4, 3, 1, 1, 0, 1, 0, 1, 0, 0, 0, 0, 0, 0, 0, 0, 0, 0, 0, 0, 0, 0, 0, 0, 0, 0, 0, 0, 0, 0, 0, 0, 0, 0, 0, 0, 0, 0, 0, 0, 0, 0, 0, 0, 0, 0, 0, 0, 0, 0, 0, 0, 0, 0, 0, 0, 0, 0, 0, 0, 0, 0, 0, 0, 0, 0, 0, 0, 0, 0, 0, 0
0, 0, 2, 0, 0, 0, 0, 0, 0, 0, 2, 0, 0, 1, 4, 0, 3, 1, 4, 4, 3, 1, 2, 2, 1, 5, 1, 4, 2, 2, 1, 5, 3, 4, 0, 3, 2, 1, 1, 0, 0, 0, 1, 0, 0, 0, 0, 0, 0, 0, 0, 0, 0, 0, 0, 0, 0, 0, 0, 0, 0, 0, 0, 0, 0, 0, 0, 0, 0, 0, 0, 0, 0, 0, 0, 0, 0, 0, 0, 0, 0, 0, 0, 0, 0, 0, 0, 0, 0, 0, 0, 0, 0, 0, 0, 0, 0, 0, 0, 0, 0, 0, 0, 0, 0, 0
0, 0, 3, 0, 0, 0, 0, 0, 0, 0, 1, 1, 2, 1, 0, 2, 1, 1, 4, 6, 3, 6, 2, 3, 0, 4, 3, 5, 3, 1, 3, 2, 4, 1, 0, 2, 3, 0, 1, 2, 1, 1, 1, 1, 2, 0, 0, 0, 0, 0, 0, 0, 0, 0, 0, 0, 0, 0, 0, 0, 0, 0, 0, 0, 0, 0, 0, 0, 0, 0, 0, 0, 0, 0, 0, 0, 0, 0, 0, 0, 0, 0, 0, 0, 0, 0, 0, 0, 0, 0, 0, 0, 0, 0, 0, 0, 0, 0, 0, 0, 0, 0, 0, 0, 0, 0
0, 0, 4, 4, 0, 0, 0, 0, 0, 0, 0, 1, 0, 3, 2, 2, 2, 3, 2, 2, 2, 1, 0, 0, 0, 6, 1, 2, 2, 2, 2, 1, 2, 0, 2, 2, 1, 1, 0, 0, 0, 1, 2, 0, 0, 0, 0, 0, 0, 0, 0, 0, 0, 0, 0, 0, 0, 0, 0, 0, 0, 0, 0, 0, 0, 0, 0, 0, 0, 0, 0, 0, 0, 0, 0, 0, 0, 0, 0, 0, 0, 0, 0, 0, 0, 0, 0, 0, 0, 0, 0, 0, 0, 0, 0, 0, 0, 0, 0, 0, 0, 0, 0, 0, 0, 0
0, 0, 5, 2, 3, 4, 6, 11, 6, 27, 53, 42, 42, 70, 61, 86, 86, 96, 106, 103, 114, 105, 78, 108, 109, 108, 111, 76, 78, 116, 77, 81, 80, 72, 67, 71, 51, 40, 41, 34, 37, 34, 32, 24, 13, 7, 0, 0, 0, 0, 0, 0, 0, 0, 0, 0, 0, 0, 0, 0, 0, 0, 0, 0, 0, 0, 0, 0, 0, 0, 0, 0, 0, 0, 0, 0, 0, 0, 0, 0, 0, 0, 0, 0, 0, 0, 0, 0, 0, 0, 0, 0, 0, 0, 0, 0, 0, 0, 0, 0, 0, 0, 0, 0, 0, 0
0, 0, 6, 1, 4, 6, 25, 31, 46, 54, 109, 89, 114, 153, 155, 198, 216, 214, 225, 241, 225, 240, 263, 243, 259, 208, 272, 243, 204, 213, 204, 171, 175, 161, 156, 179, 146, 97, 113, 88, 100, 86, 66, 48, 45, 22, 6, 0, 0, 0, 0, 0, 0, 0, 0, 0, 0, 0, 0, 0, 0, 0, 0, 0, 0, 0, 0, 0, 0, 0, 0, 0, 0, 0, 0, 0, 0, 0, 0, 0, 0, 0, 0, 0, 0, 0, 0, 0, 0, 0, 0, 0, 0, 0, 0, 0, 0, 0, 0, 0, 0, 0, 0, 0, 0, 0
0, 0, 7, 1, 6, 8, 19, 30, 37, 63, 113, 88, 121, 144, 185, 207, 202, 234, 245, 256, 265, 265, 287, 206, 241, 254, 225, 245, 219, 194, 208, 196, 171, 160, 144, 138, 147, 129, 101, 109, 80, 74, 60, 58, 44, 16, 1, 0, 0, 0, 0, 0, 0, 0, 0, 0, 0, 0, 0, 0, 0, 0, 0, 0, 0, 0, 0, 0, 0, 0, 0, 0, 0, 0, 0, 0, 0, 0, 0, 0, 0, 0, 0, 0, 0, 0, 0, 0, 0, 0, 0, 0, 0, 0, 0, 0, 0, 0, 0, 0, 0, 0, 0, 0, 0, 0
0, 0, 8, 4, 3, 7, 14, 28, 37, 63, 117, 96, 114, 137, 185, 218, 209, 228, 220, 229, 271, 223, 219, 240, 258, 246, 226, 213, 223, 192, 186, 182, 194, 181, 156, 130, 108, 126, 109, 90, 98, 93, 69, 54, 30, 17, 0, 0, 0, 0, 0, 0, 0, 0, 0, 0, 0, 0, 0, 0, 0, 0, 0, 0, 0, 0, 0, 0, 0, 0, 0, 0, 0, 0, 0, 0, 0, 0, 0, 0, 0, 0, 0, 0, 0, 0, 0, 0, 0, 0, 0, 0, 0, 0, 0, 0, 0, 0, 0, 0, 0, 0, 0, 0, 0, 0
0, 0, 9, 3, 3, 5, 10, 27, 41, 55, 111, 84, 112, 135, 160, 231, 210, 201, 261, 227, 246, 230, 238, 236, 273, 217, 202, 232, 219, 222, 205, 179, 188, 181, 137, 147, 144, 151, 112, 101, 85, 85, 76, 42, 40, 22, 0, 0, 0, 0, 0, 0, 0, 0, 0, 0, 0, 0, 0, 0, 0, 0, 0, 0, 0, 0, 0, 0, 0, 0, 0, 0, 0, 0, 0, 0, 0, 0, 0, 0, 0, 0, 0, 0, 0, 0, 0, 0, 0, 0, 0, 0, 0, 0, 0, 0, 0, 0, 0, 0, 0, 0, 0, 0, 0, 0
0, 0, 10, 1, 6, 9, 15, 21, 28, 47, 119, 97, 105, 133, 192, 207, 176, 229, 195, 267, 277, 254, 218, 238, 267, 236, 246, 210, 212, 256, 178, 209, 161, 179, 161, 150, 138, 119, 111, 87, 88, 86, 64, 45, 48, 23, 3, 0, 0, 0, 0, 0, 0, 0, 0, 0, 0, 0, 0, 0, 0, 0, 0, 0, 0, 0, 0, 0, 0, 0, 0, 0, 0, 0, 0, 0, 0, 0, 0, 0, 0, 0, 0, 0, 0, 0, 0, 0, 0, 0, 0, 0, 0, 0, 0, 0, 0, 0, 0, 0, 0, 0, 0, 0, 0, 0
0, 0, 11, 5, 4, 6, 11, 21, 46, 56, 108, 88, 102, 134, 174, 201, 191, 208, 224, 241, 241, 264, 249, 262, 231, 228, 228, 206, 205, 193, 197, 170, 223, 165, 178, 147, 143, 144, 96, 89, 80, 57, 56, 52, 35, 31, 0, 0, 0, 0, 0, 0, 0, 0, 0, 0, 0, 0, 0, 0, 0, 0, 0, 0, 0, 0, 0, 0, 0, 0, 0, 0, 0, 0, 0, 0, 0, 0, 0, 0, 0, 0, 0, 0, 0, 0, 0, 0, 0, 0, 0, 0, 0, 0, 0, 0, 0, 0, 0, 0, 0, 0, 0, 0, 0, 0
0, 0, 12, 2, 8, 5, 14, 17, 38, 58, 110, 105, 123, 135, 173, 188, 213, 239, 227, 232, 224, 256, 227, 249, 259, 241, 224, 223, 204, 220, 190, 201, 214, 150, 151, 149, 134, 124, 110, 104, 99, 89, 81, 53, 44, 28, 2, 0, 0, 0, 0, 0, 0, 0, 0, 0, 0, 0, 0, 0, 0, 0, 0, 0, 0, 0, 0, 0, 0, 0, 0, 0, 0, 0, 0, 0, 0, 0, 0, 0, 0, 0, 0, 0, 0, 0, 0, 0, 0, 0, 0, 0, 0, 0, 0, 0, 0, 0, 0, 0, 0, 0, 0, 0, 0, 0
0, 0, 13, 2, 2, 4, 14, 20, 44, 60, 126, 91, 110, 155, 204, 190, 184, 224, 225, 263, 277, 250, 263, 223, 246, 259, 217, 237, 216, 198, 167, 188, 168, 142, 145, 149, 133, 134, 126, 110, 77, 84, 66, 56, 37, 18, 2, 0, 0, 0, 0, 0, 0, 0, 0, 0, 0, 0, 0, 0, 0, 0, 0, 0, 0, 0, 0, 0, 0, 0, 0, 0, 0, 0, 0, 0, 0, 0, 0, 0, 0, 0, 0, 0, 0, 0, 0, 0, 0, 0, 0, 0, 0, 0, 0, 0, 0, 0, 0, 0, 0, 0, 0, 0, 0, 0
0, 0, 14, 3, 3, 9, 14, 20, 24, 56, 123, 99, 125, 135, 143, 194, 205, 224, 214, 234, 238, 260, 254, 254, 240, 229, 243, 233, 208, 226, 171, 194, 182, 172, 141, 147, 137, 93, 90, 106, 87, 81, 55, 53, 51, 20, 1, 0, 0, 0, 0, 0, 0, 0, 0, 0, 0, 0, 0, 0, 0, 0, 0, 0, 0, 0, 0, 0, 0, 0, 0, 0, 0, 0, 0, 0, 0, 0, 0, 0, 0, 0, 0, 0, 0, 0, 0, 0, 0, 0, 0, 0, 0, 0, 0, 0, 0, 0, 0, 0, 0, 0, 0, 0, 0, 0
0, 0, 15, 4, 5, 9, 13, 14, 30, 58, 112, 100, 123, 152, 195, 206, 213, 228, 235, 286, 226, 255, 252, 249, 259, 260, 247, 236, 216, 188, 188, 195, 183, 159, 153, 162, 116, 123, 125, 91, 89, 66, 64, 51, 48, 19, 0, 0, 0, 0, 0, 0, 0, 0, 0, 0, 0, 0, 0, 0, 0, 0, 0, 0, 0, 0, 0, 0, 0, 0, 0, 0, 0, 0, 0, 0, 0, 0, 0, 0, 0, 0, 0, 0, 0, 0, 0, 0, 0, 0, 0, 0, 0, 0, 0, 0, 0, 0, 0, 0, 0, 0, 0, 0, 0, 0
0, 0, 16, 2, 4, 14, 9, 24, 45, 61, 112, 94, 122, 157, 181, 206, 224, 184, 240, 234, 247, 263, 240, 250, 227, 241, 263, 220, 229, 188, 211, 181, 168, 163, 174, 134, 146, 107, 126, 86, 112, 82, 83, 55, 42, 27, 1, 0, 0, 0, 0, 0, 0, 0, 0, 0, 0, 0, 0, 0, 0, 0, 0, 0, 0, 0, 0, 0, 0, 0, 0, 0, 0, 0, 0, 0, 0, 0, 0, 0, 0, 0, 0, 0, 0, 0, 0, 0, 0, 0, 0, 0, 0, 0, 0, 0, 0, 0, 0, 0, 0, 0, 0, 0, 0, 0
0, 0, 17, 7, 2, 6, 14, 21, 38, 59, 113, 88, 119, 137, 171, 164, 209, 212, 258, 242, 217, 209, 238, 257, 230, 218, 225, 224, 252, 207, 221, 189, 215, 177, 173, 156, 124, 126, 132, 90, 107, 75, 68, 53, 41, 17, 3, 0, 0, 0, 0, 0, 0, 0, 0, 0, 0, 0, 0, 0, 0, 0, 0, 0, 0, 0, 0, 0, 0, 0, 0, 0, 0, 0, 0, 0, 0, 0, 0, 0, 0, 0, 0, 0, 0, 0, 0, 0, 0, 0, 0, 0, 0, 0, 0, 0, 0, 0, 0, 0, 0, 0, 0, 0, 0, 0
0, 0, 18, 2, 5, 7, 18, 29, 40, 58, 128, 98, 109, 128, 174, 205, 207, 255, 243, 218, 220, 220, 263, 232, 232, 236, 220, 217, 191, 213, 186, 217, 181, 157, 162, 150, 142, 145, 109, 112, 83, 81, 67, 63, 50, 26, 1, 0, 0, 0, 0, 0, 0, 0, 0, 0, 0, 0, 0, 0, 0, 0, 0, 0, 0, 0, 0, 0, 0, 0, 0, 0, 0, 0, 0, 0, 0, 0, 0, 0, 0, 0, 0, 0, 0, 0, 0, 0, 0, 0, 0, 0, 0, 0, 0, 0, 0, 0, 0, 0, 0, 0, 0, 0, 0, 0
0, 0, 19, 1, 7, 8, 18, 29, 51, 60, 132, 98, 113, 139, 161, 180, 230, 169, 240, 249, 250, 239, 226, 246, 220, 238, 233, 230, 215, 197, 194, 187, 175, 161, 136, 143, 148, 146, 106, 114, 91, 109, 70, 66, 34, 29, 0, 0, 0, 0, 0, 0, 0, 0, 0, 0, 0, 0, 0, 0, 0, 0, 0, 0, 0, 0, 0, 0, 0, 0, 0, 0, 0, 0, 0, 0, 0, 0, 0, 0, 0, 0, 0, 0, 0, 0, 0, 0, 0, 0, 0, 0, 0, 0, 0, 0, 0, 0, 0, 0, 0, 0, 0, 0, 0, 0
0, 0, 20, 1, 4, 6, 21, 22, 45, 63, 128, 96, 99, 156, 150, 202, 182, 224, 256, 258, 269, 237, 264, 254, 224, 238, 228, 209, 211, 205, 228, 199, 170, 166, 170, 154, 145, 140, 111, 133, 88, 89, 70, 55, 38, 21, 2, 0, 0, 0, 0, 0, 0, 0, 0, 0, 0, 0, 0, 0, 0, 0, 0, 0, 0, 0, 0, 0, 0, 0, 0, 0, 0, 0, 0, 0, 0, 0, 0, 0, 0, 0, 0, 0, 0, 0, 0, 0, 0, 0, 0, 0, 0, 0, 0, 0, 0, 0, 0, 0, 0, 0, 0, 0, 0, 0
0, 0, 21, 3, 3, 10, 18, 27, 32, 49, 141, 96, 103, 134, 167, 182, 216, 247, 237, 257, 209, 253, 234, 242, 258, 231, 230, 237, 211, 190, 207, 191, 178, 163, 156, 151, 136, 139, 117, 101, 78, 79, 63, 58, 33, 19, 0, 0, 0, 0, 0, 0, 0, 0, 0, 0, 0, 0, 0, 0, 0, 0, 0, 0, 0, 0, 0, 0, 0, 0, 0, 0, 0, 0, 0, 0, 0, 0, 0, 0, 0, 0, 0, 0, 0, 0, 0, 0, 0, 0, 0, 0, 0, 0, 0, 0, 0, 0, 0, 0, 0, 0, 0, 0, 0, 0
0, 0, 22, 1, 0, 5, 18, 24, 38, 58, 124, 109, 111, 156, 195, 184, 186, 193, 240, 255, 250, 271, 215, 217, 231, 226, 203, 224, 223, 185, 183, 170, 154, 170, 167, 144, 131, 137, 106, 117, 99, 78, 63, 47, 58, 30, 1, 0, 0, 0, 0, 0, 0, 0, 0, 0, 0, 0, 0, 0, 0, 0, 0, 0, 0, 0, 0, 0, 0, 0, 0, 0, 0, 0, 0, 0, 0, 0, 0, 0, 0, 0, 0, 0, 0, 0, 0, 0, 0, 0, 0, 0, 0, 0, 0, 0, 0, 0, 0, 0, 0, 0, 0, 0, 0, 0
0, 0, 23, 2, 5, 6, 6, 24, 38, 66, 107, 83, 117, 143, 172, 203, 198, 218, 239, 251, 259, 270, 235, 253, 275, 243, 240, 225, 184, 227, 225, 196, 194, 198, 171, 148, 126, 133, 103, 102, 85, 63, 62, 64, 34, 23, 0, 0, 0, 0, 0, 0, 0, 0, 0, 0, 0, 0, 0, 0, 0, 0, 0, 0, 0, 0, 0, 0, 0, 0, 0, 0, 0, 0, 0, 0, 0, 0, 0, 0, 0, 0, 0, 0, 0, 0, 0, 0, 0, 0, 0, 0, 0, 0, 0, 0, 0, 0, 0, 0, 0, 0, 0, 0, 0, 0
0, 0, 24, 6, 1, 6, 11, 26, 48, 56, 119, 93, 120, 135, 172, 225, 191, 228, 219, 254, 224, 241, 233, 226, 242, 258, 193, 226, 214, 201, 182, 170, 189, 167, 156, 151, 130, 122, 110, 103, 89, 79, 67, 47, 38, 21, 3, 0, 0, 0, 0, 0, 0, 0, 0, 0, 0, 0, 0, 0, 0, 0, 0, 0, 0, 0, 0, 0, 0, 0, 0, 0, 0, 0, 0, 0, 0, 0, 0, 0, 0, 0, 0, 0, 0, 0, 0, 0, 0, 0, 0, 0, 0, 0, 0, 0, 0, 0, 0, 0, 0, 0, 0, 0, 0, 0
0, 0, 25, 11, 3, 6, 15, 23, 46, 57, 100, 111, 128, 144, 161, 196, 194, 212, 241, 228, 210, 270, 250, 257, 214, 275, 218, 221, 219, 209, 169, 186, 163, 187, 165, 158, 143, 115, 127, 108, 89, 74, 64, 51, 45, 22, 1, 0, 0, 0, 0, 0, 0, 0, 0, 0, 0, 0, 0, 0, 0, 0, 0, 0, 0, 0, 0, 0, 0, 0, 0, 0, 0, 0, 0, 0, 0, 0, 0, 0, 0, 0, 0, 0, 0, 0, 0, 0, 0, 0, 0, 0, 0, 0, 0, 0, 0, 0, 0, 0, 0, 0, 0, 0, 0, 0
0, 0, 26, 0, 4, 5, 15, 25, 46, 53, 118, 99, 114, 135, 165, 187, 188, 221, 253, 252, 238, 244, 265, 230, 249, 213, 242, 225, 253, 224, 197, 187, 213, 170, 151, 154, 125, 146, 115, 72, 78, 85, 70, 47, 42, 23, 2, 0, 0, 0, 0, 0, 0, 0, 0, 0, 0, 0, 0, 0, 0, 0, 0, 0, 0, 0, 0, 0, 0, 0, 0, 0, 0, 0, 0, 0, 0, 0, 0, 0, 0, 0, 0, 0, 0, 0, 0, 0, 0, 0, 0, 0, 0, 0, 0, 0, 0, 0, 0, 0, 0, 0, 0, 0, 0, 0
0, 0, 27, 3, 3, 19, 13, 28, 46, 48, 125, 103, 131, 166, 172, 206, 209, 221, 226, 233, 253, 282, 228, 236, 263, 260, 227, 213, 211, 213, 214, 197, 190, 160, 150, 134, 124, 135, 123, 92, 77, 91, 75, 54, 39, 26, 2, 0, 0, 0, 0, 0, 0, 0, 0, 0, 0, 0, 0, 0, 0, 0, 0, 0, 0, 0, 0, 0, 0, 0, 0, 0, 0, 0, 0, 0, 0, 0, 0, 0, 0, 0, 0, 0, 0, 0, 0, 0, 0, 0, 0, 0, 0, 0, 0, 0, 0, 0, 0, 0, 0, 0, 0, 0, 0, 0
0, 0, 28, 7, 2, 14, 13, 17, 33, 60, 122, 92, 119, 158, 203, 202, 197, 228, 216, 228, 266, 261, 237, 253, 250, 274, 243, 215, 225, 214, 213, 185, 161, 165, 156, 163, 136, 143, 101, 138, 73, 72, 67, 61, 36, 18, 0, 0, 0, 0, 0, 0, 0, 0, 0, 0, 0, 0, 0, 0, 0, 0, 0, 0, 0, 0, 0, 0, 0, 0, 0, 0, 0, 0, 0, 0, 0, 0, 0, 0, 0, 0, 0, 0, 0, 0, 0, 0, 0, 0, 0, 0, 0, 0, 0, 0, 0, 0, 0, 0, 0, 0, 0, 0, 0, 0
0, 0, 29, 2, 2, 10, 21, 32, 33, 52, 101, 88, 121, 160, 167, 201, 196, 221, 231, 223, 233, 278, 261, 225, 254, 247, 243, 251, 209, 192, 194, 187, 198, 166, 144, 180, 162, 114, 117, 88, 104, 94, 67, 47, 52, 14, 3, 0, 0, 0, 0, 0, 0, 0, 0, 0, 0, 0, 0, 0, 0, 0, 0, 0, 0, 0, 0, 0, 0, 0, 0, 0, 0, 0, 0, 0, 0, 0, 0, 0, 0, 0, 0, 0, 0, 0, 0, 0, 0, 0, 0, 0, 0, 0, 0, 0, 0, 0, 0, 0, 0, 0, 0, 0, 0, 0
0, 0, 30, 1, 2, 10, 18, 28, 27, 58, 111, 86, 108, 129, 183, 201, 170, 221, 221, 266, 279, 245, 260, 277, 276, 228, 253, 259, 217, 230, 187, 186, 164, 201, 179, 148, 138, 163, 124, 119, 90, 97, 70, 54, 29, 26, 2, 0, 0, 0, 0, 0, 0, 0, 0, 0, 0, 0, 0, 0, 0, 0, 0, 0, 0, 0, 0, 0, 0, 0, 0, 0, 0, 0, 0, 0, 0, 0, 0, 0, 0, 0, 0, 0, 0, 0, 0, 0, 0, 0, 0, 0, 0, 0, 0, 0, 0, 0, 0, 0, 0, 0, 0, 0, 0, 0
0, 0, 31, 0, 8, 5, 17, 24, 34, 53, 122, 113, 125, 141, 173, 190, 220, 222, 249, 240, 211, 238, 254, 257, 238, 217, 202, 211, 219, 216, 189, 174, 144, 175, 137, 147, 114, 104, 104, 97, 103, 67, 75, 56, 44, 17, 1, 0, 0, 0, 0, 0, 0, 0, 0, 0, 0, 0, 0, 0, 0, 0, 0, 0, 0, 0, 0, 0, 0, 0, 0, 0, 0, 0, 0, 0, 0, 0, 0, 0, 0, 0, 0, 0, 0, 0, 0, 0, 0, 0, 0, 0, 0, 0, 0, 0, 0, 0, 0, 0, 0, 0, 0, 0, 0, 0
0, 0, 32, 4, 1, 13, 21, 27, 53, 63, 119, 84, 132, 146, 170, 202, 195, 228, 237, 262, 249, 239, 258, 259, 235, 231, 237, 229, 202, 200, 203, 199, 192, 178, 175, 139, 151, 147, 124, 113, 81, 75, 54, 70, 39, 26, 2, 0, 0, 0, 0, 0, 0, 0, 0, 0, 0, 0, 0, 0, 0, 0, 0, 0, 0, 0, 0, 0, 0, 0, 0, 0, 0, 0, 0, 0, 0, 0, 0, 0, 0, 0, 0, 0, 0, 0, 0, 0, 0, 0, 0, 0, 0, 0, 0, 0, 0, 0, 0, 0, 0, 0, 0, 0, 0, 0
0, 0, 33, 3, 6, 5, 17, 23, 35, 43, 119, 91, 114, 136, 180, 189, 204, 225, 236, 247, 224, 240, 232, 254, 234, 281, 237, 221, 245, 189, 185, 218, 170, 152, 165, 164, 142, 114, 108, 106, 85, 83, 61, 56, 29, 26, 3, 0, 0, 0, 0, 0, 0, 0, 0, 0, 0, 0, 0, 0, 0, 0, 0, 0, 0, 0, 0, 0, 0, 0, 0, 0, 0, 0, 0, 0, 0, 0, 0, 0, 0, 0, 0, 0, 0, 0, 0, 0, 0, 0, 0, 0, 0, 0, 0, 0, 0, 0, 0, 0, 0, 0, 0, 0, 0, 0
0, 0, 34, 8, 6, 8, 12, 17, 49, 61, 122, 111, 99, 114, 179, 221, 209, 206, 211, 227, 245, 251, 267, 245, 263, 223, 267, 206, 201, 188, 208, 216, 151, 134, 169, 167, 143, 134, 104, 98, 94, 84, 58, 61, 40, 17, 1, 0, 0, 0, 0, 0, 0, 0, 0, 0, 0, 0, 0, 0, 0, 0, 0, 0, 0, 0, 0, 0, 0, 0, 0, 0, 0, 0, 0, 0, 0, 0, 0, 0, 0, 0, 0, 0, 0, 0, 0, 0, 0, 0, 0, 0, 0, 0, 0, 0, 0, 0, 0, 0, 0, 0, 0, 0, 0, 0
0, 0, 35, 3, 2, 7, 19, 23, 47, 47, 126, 105, 115, 121, 162, 212, 199, 191, 224, 219, 231, 261, 241, 252, 264, 217, 223, 223, 197, 185, 212, 176, 161, 159, 163, 143, 141, 143, 130, 108, 87, 91, 72, 67, 34, 22, 2, 0, 0, 0, 0, 0, 0, 0, 0, 0, 0, 0, 0, 0, 0, 0, 0, 0, 0, 0, 0, 0, 0, 0, 0, 0, 0, 0, 0, 0, 0, 0, 0, 0, 0, 0, 0, 0, 0, 0, 0, 0, 0, 0, 0, 0, 0, 0, 0, 0, 0, 0, 0, 0, 0, 0, 0, 0, 0, 0
0, 0, 36, 4, 5, 10, 14, 19, 27, 68, 121, 95, 128, 162, 166, 233, 204, 221, 208, 249, 266, 265, 224, 226, 213, 234, 222, 222, 220, 211, 244, 186, 172, 184, 159, 151, 139, 119, 120, 107, 98, 106, 60, 50, 38, 18, 1, 0, 0, 0, 0, 0, 0, 0, 0, 0, 0, 0, 0, 0, 0, 0, 0, 0, 0, 0, 0, 0, 0, 0, 0, 0, 0, 0, 0, 0, 0, 0, 0, 0, 0, 0, 0, 0, 0, 0, 0, 0, 0, 0, 0, 0, 0, 0, 0, 0, 0, 0, 0, 0, 0, 0, 0, 0, 0, 0
0, 0, 37, 4, 3, 6, 12, 29, 51, 48, 128, 100, 115, 162, 169, 183, 188, 216, 205, 256, 249, 250, 233, 217, 222, 205, 223, 202, 226, 206, 190, 205, 178, 173, 145, 163, 147, 138, 114, 110, 92, 86, 69, 58, 43, 21, 0, 0, 0, 0, 0, 0, 0, 0, 0, 0, 0, 0, 0, 0, 0, 0, 0, 0, 0, 0, 0, 0, 0, 0, 0, 0, 0, 0, 0, 0, 0, 0, 0, 0, 0, 0, 0, 0, 0, 0, 0, 0, 0, 0, 0, 0, 0, 0, 0, 0, 0, 0, 0, 0, 0, 0, 0, 0, 0, 0
0, 0, 38, 0, 6, 10, 9, 36, 43, 60, 103, 86, 131, 136, 199, 207, 207, 221, 220, 254, 273, 236, 243, 249, 233, 264, 222, 190, 208, 225, 243, 181, 187, 187, 159, 151, 126, 127, 93, 115, 61, 77, 73, 54, 38, 18, 3, 0, 0, 0, 0, 0, 0, 0, 0, 0, 0, 0, 0, 0, 0, 0, 0, 0, 0, 0, 0, 0, 0, 0, 0, 0, 0, 0, 0, 0, 0, 0, 0, 0, 0, 0, 0, 0, 0, 0, 0, 0, 0, 0, 0, 0, 0, 0, 0, 0, 0, 0, 0, 0, 0, 0, 0, 0, 0, 0
0, 0, 39, 2, 4, 10, 12, 21, 40, 68, 108, 107, 109, 145, 186, 191, 202, 206, 223, 251, 259, 249, 241, 239, 289, 247, 220, 250, 230, 213, 199, 164, 197, 173, 161, 153, 115, 123, 108, 79, 101, 90, 72, 54, 47, 23, 1, 0, 0, 0, 0, 0, 0, 0, 0, 0, 0, 0, 0, 0, 0, 0, 0, 0, 0, 0, 0, 0, 0, 0, 0, 0, 0, 0, 0, 0, 0, 0, 0, 0, 0, 0, 0, 0, 0, 0, 0, 0, 0, 0, 0, 0, 0, 0, 0, 0, 0, 0, 0, 0, 0, 0, 0, 0, 0, 0
0, 0, 40, 4, 3, 10, 14, 27, 49, 52, 104, 114, 128, 156, 180, 213, 204, 208, 231, 219, 244, 247, 247, 246, 225, 232, 219, 238, 241, 206, 190, 190, 157, 162, 183, 159, 130, 115, 128, 95, 93, 57, 63, 43, 39, 17, 3, 0, 0, 0, 0, 0, 0, 0, 0, 0, 0, 0, 0, 0, 0, 0, 0, 0, 0, 0, 0, 0, 0, 0, 0, 0, 0, 0, 0, 0, 0, 0, 0, 0, 0, 0, 0, 0, 0, 0, 0, 0, 0, 0, 0, 0, 0, 0, 0, 0, 0, 0, 0, 0, 0, 0, 0, 0, 0, 0
0, 0, 41, 2, 3, 8, 11, 21, 37, 40, 90, 87, 112, 128, 164, 171, 171, 185, 172, 233, 225, 250, 240, 199, 235, 223, 188, 218, 200, 230, 176, 146, 175, 163, 136, 156, 108, 114, 116, 95, 82, 86, 80, 51, 40, 22, 2, 0, 0, 0, 0, 0, 0, 0, 0, 0, 0, 0, 0, 0, 0, 0, 0, 0, 0, 0, 0, 0, 0, 0, 0, 0, 0, 0, 0, 0, 0, 0, 0, 0, 0, 0, 0, 0, 0, 0, 0, 0, 0, 0, 0, 0, 0, 0, 0, 0, 0, 0, 0, 0, 0, 0, 0, 0, 0, 0
0, 0, 42, 0, 3, 5, 13, 12, 25, 42, 77, 59, 91, 116, 106, 146, 138, 199, 168, 195, 205, 207, 192, 164, 183, 196, 177, 150, 161, 169, 189, 128, 139, 127, 126, 120, 91, 106, 90, 81, 76, 55, 56, 53, 23, 22, 1, 0, 0, 0, 0, 0, 0, 0, 0, 0, 0, 0, 0, 0, 0, 0, 0, 0, 0, 0, 0, 0, 0, 0, 0, 0, 0, 0, 0, 0, 0, 0, 0, 0, 0, 0, 0, 0, 0, 0, 0, 0, 0, 0, 0, 0, 0, 0, 0, 0, 0, 0, 0, 0, 0, 0, 0, 0, 0, 0
0, 0, 43, 0, 1, 3, 12, 12, 21, 23, 60, 46, 63, 90, 79, 96, 119, 133, 127, 172, 123, 162, 152, 160, 154, 146, 180, 160, 139, 145, 153, 119, 116, 105, 112, 92, 78, 80, 85, 73, 72, 62, 39, 38, 34, 7, 0, 0, 0, 0, 0, 0, 0, 0, 0, 0, 0, 0, 0, 0, 0, 0, 0, 0, 0, 0, 0, 0, 0, 0, 0, 0, 0, 0, 0, 0, 0, 0, 0, 0, 0, 0, 0, 0, 0, 0, 0, 0, 0, 0, 0, 0, 0, 0, 0, 0, 0, 0, 0, 0, 0, 0, 0, 0, 0, 0
0, 0, 44, 1, 2, 3, 6, 11, 15, 23, 37, 42, 51, 74, 94, 90, 80, 90, 109, 103, 130, 144, 149, 128, 106, 133, 112, 111, 138, 85, 105, 103, 76, 83, 98, 67, 82, 61, 65, 53, 61, 49, 51, 23, 25, 17, 1, 0, 0, 0, 0, 0, 0, 0, 0, 0, 0, 0, 0, 0, 0, 0, 0, 0, 0, 0, 0, 0, 0, 0, 0, 0, 0, 0, 0, 0, 0, 0, 0, 0, 0, 0, 0, 0, 0, 0, 0, 0, 0, 0, 0, 0, 0, 0, 0, 0, 0, 0, 0, 0, 0, 0, 0, 0, 0, 0
0, 0, 45, 1, 0, 3, 7, 6, 14, 13, 37, 27, 35, 45, 56, 64, 69, 64, 76, 85, 84, 88, 105, 111, 102, 108, 90, 94, 85, 112, 86, 71, 78, 66, 83, 71, 74, 68, 50, 53, 46, 35, 23, 27, 11, 11, 0, 0, 0, 0, 0, 0, 0, 0, 0, 0, 0, 0, 0, 0, 0, 0, 0, 0, 0, 0, 0, 0, 0, 0, 0, 0, 0, 0, 0, 0, 0, 0, 0, 0, 0, 0, 0, 0, 0, 0, 0, 0, 0, 0, 0, 0, 0, 0, 0, 0, 0, 0, 0, 0, 0, 0, 0, 0, 0, 0
0, 0, 46, 3, 1, 1, 5, 6, 7, 9, 22, 17, 28, 37, 34, 36, 53, 53, 55, 65, 104, 66, 62, 72, 87, 62, 66, 74, 80, 74, 77, 70, 63, 53, 57, 46, 40, 39, 52, 41, 28, 32, 25, 33, 19, 11, 0, 0, 0, 0, 0, 0, 0, 0, 0, 0, 0, 0, 0, 0, 0, 0, 0, 0, 0, 0, 0, 0, 0, 0, 0, 0, 0, 0, 0, 0, 0, 0, 0, 0, 0, 0, 0, 0, 0, 0, 0, 0, 0, 0, 0, 0, 0, 0, 0, 0, 0, 0, 0, 0, 0, 0, 0, 0, 0, 0
0, 0, 47, 2, 0, 1, 0, 2, 2, 5, 19, 7, 12, 27, 27, 42, 32, 25, 36, 59, 66, 46, 63, 55, 49, 63, 60, 68, 58, 56, 68, 48, 61, 50, 54, 36, 42, 48, 31, 39, 33, 25, 27, 18, 14, 7, 1, 0, 0, 0, 0, 0, 0, 0, 0, 0, 0, 0, 0, 0, 0, 0, 0, 0, 0, 0, 0, 0, 0, 0, 0, 0, 0, 0, 0, 0, 0, 0, 0, 0, 0, 0, 0, 0, 0, 0, 0, 0, 0, 0, 0, 0, 0, 0, 0, 0, 0, 0, 0, 0, 0, 0, 0, 0, 0, 0
0, 0, 48, 0, 0, 0, 0, 1, 1, 2, 10, 6, 12, 14, 24, 29, 27, 32, 36, 56, 35, 45, 57, 55, 72, 35, 40, 57, 53, 49, 54, 50, 41, 42, 38, 37, 41, 47, 24, 31, 29, 23, 23, 14, 10, 8, 0, 0, 0, 0, 0, 0, 0, 0, 0, 0, 0, 0, 0, 0, 0, 0, 0, 0, 0, 0, 0, 0, 0, 0, 0, 0, 0, 0, 0, 0, 0, 0, 0, 0, 0, 0, 0, 0, 0, 0, 0, 0, 0, 0, 0, 0, 0, 0, 0, 0, 0, 0, 0, 0, 0, 0, 0, 0, 0, 0
0, 0, 49, 0, 0, 0, 0, 0, 0, 1, 12, 4, 8, 8, 15, 23, 20, 23, 30, 40, 39, 45, 47, 59, 43, 43, 45, 51, 48, 44, 53, 46, 50, 36, 50, 39, 46, 40, 39, 22, 24, 24, 23, 7, 18, 6, 0, 0, 0, 0, 0, 0, 0, 0, 0, 0, 0, 0, 0, 0, 0, 0, 0, 0, 0, 0, 0, 0, 0, 0, 0, 0, 0, 0, 0, 0, 0, 0, 0, 0, 0, 0, 0, 0, 0, 0, 0, 0, 0, 0, 0, 0, 0, 0, 0, 0, 0, 0, 0, 0, 0, 0, 0, 0, 0, 0
0, 0, 50, 0, 0, 0, 0, 0, 2, 0, 7, 2, 5, 18, 12, 15, 20, 25, 28, 31, 50, 43, 44, 44, 56, 39, 43, 56, 48, 32, 37, 42, 45, 47, 37, 39, 43, 41, 44, 30, 25, 23, 16, 17, 12, 3, 1, 0, 0, 0, 0, 0, 0, 0, 0, 0, 0, 0, 0, 0, 0, 0, 0, 0, 0, 0, 0, 0, 0, 0, 0, 0, 0, 0, 0, 0, 0, 0, 0, 0, 0, 0, 0, 0, 0, 0, 0, 0, 0, 0, 0, 0, 0, 0, 0, 0, 0, 0, 0, 0, 0, 0, 0, 0, 0, 0
0, 0, 51, 1, 0, 1, 2, 1, 2, 3, 14, 8, 10, 16, 11, 21, 31, 27, 37, 39, 52, 51, 53, 49, 51, 56, 50, 64, 43, 59, 50, 61, 38, 47, 48, 33, 30, 50, 27, 31, 27, 30, 27, 17, 14, 4, 0, 0, 0, 0, 0, 0, 0, 0, 0, 0, 0, 0, 0, 0, 0, 0, 0, 0, 0, 0, 0, 0, 0, 0, 0, 0, 0, 0, 0, 0, 0, 0, 0, 0, 0, 0, 0, 0, 0, 0, 0, 0, 0, 0, 0, 0, 0, 0, 0, 0, 0, 0, 0, 0, 0, 0, 0, 0, 0, 0
0, 0, 52, 0, 0, 3, 2, 4, 5, 5, 21, 11, 16, 20, 23, 31, 34, 45, 57, 44, 60, 58, 60, 64, 52, 67, 57, 83, 56, 49, 80, 56, 61, 51, 58, 39, 53, 41, 51, 27, 25, 30, 22, 21, 12, 9, 0, 0, 0, 0, 0, 0, 0, 0, 0, 0, 0, 0, 0, 0, 0, 0, 0, 0, 0, 0, 0, 0, 0, 0, 0, 0, 0, 0, 0, 0, 0, 0, 0, 0, 0, 0, 0, 0, 0, 0, 0, 0, 0, 0, 0, 0, 0, 0, 0, 0, 0, 0, 0, 0, 0, 0, 0, 0, 0, 0
0, 0, 53, 2, 1, 1, 5, 1, 5, 11, 30, 16, 19, 24, 29, 47, 54, 57, 66, 74, 68, 66, 87, 82, 78, 88, 74, 71, 62, 64, 84, 74, 69, 68, 69, 58, 61, 48, 40, 40, 52, 31, 27, 36, 11, 12, 0, 0, 0, 0, 0, 0, 0, 0, 0, 0, 0, 0, 0, 0, 0, 0, 0, 0, 0, 0, 0, 0, 0, 0, 0, 0, 0, 0, 0, 0, 0, 0, 0, 0, 0, 0, 0, 0, 0, 0, 0, 0, 0, 0, 0, 0, 0, 0, 0, 0, 0, 0, 0, 0, 0, 0, 0, 0, 0, 0
0, 0, 54, 0, 1, 1, 4, 3, 9, 13, 23, 22, 34, 38, 55, 59, 85, 82, 70, 86, 83, 86, 113, 92, 85, 110, 87, 89, 89, 84, 82, 75, 76, 73, 61, 84, 74, 51, 54, 50, 35, 34, 41, 28, 22, 14, 0, 0, 0, 0, 0, 0, 0, 0, 0, 0, 0, 0, 0, 0, 0, 0, 0, 0, 0, 0, 0, 0, 0, 0, 0, 0, 0, 0, 0, 0, 0, 0, 0, 0, 0, 0, 0, 0, 0, 0, 0, 0, 0, 0, 0, 0, 0, 0, 0, 0, 0, 0, 0, 0, 0, 0, 0, 0, 0, 0
0, 0, 55, 0, 2, 6, 2, 8, 15, 24, 35, 40, 53, 49, 69, 88, 90, 87, 118, 127, 128, 108, 138, 144, 115, 120, 125, 106, 98, 103, 117, 117, 100, 100, 85, 88, 80, 84, 59, 62, 53, 48, 38, 44, 19, 10, 1, 0, 0, 0, 0, 0, 0, 0, 0, 0, 0, 0, 0, 0, 0, 0, 0, 0, 0, 0, 0, 0, 0, 0, 0, 0, 0, 0, 0, 0, 0, 0, 0, 0, 0, 0, 0, 0, 0, 0, 0, 0, 0, 0, 0, 0, 0, 0, 0, 0, 0, 0, 0, 0, 0, 0, 0, 0, 0, 0
0, 0, 56, 1, 0, 3, 7, 10, 27, 28, 63, 50, 66, 83, 77, 104, 122, 106, 124, 147, 139, 140, 134, 152, 161, 146, 163, 175, 161, 137, 127, 144, 101, 106, 99, 118, 103, 72, 85, 77, 50, 54, 54, 26, 17, 19, 0, 0, 0, 0, 0, 0, 0, 0, 0, 0, 0, 0, 0, 0, 0, 0, 0, 0, 0, 0, 0, 0, 0, 0, 0, 0, 0, 0, 0, 0, 0, 0, 0, 0, 0, 0, 0, 0, 0, 0, 0, 0, 0, 0, 0, 0, 0, 0, 0, 0, 0, 0, 0, 0, 0, 0, 0, 0, 0, 0
0, 0, 57, 3, 4, 8, 9, 28, 31, 38, 73, 75, 101, 106, 119, 128, 153, 144, 175, 191, 205, 196, 187, 181, 181, 163, 189, 184, 190, 160, 139, 168, 122, 133, 136, 123, 97, 98, 107, 73, 69, 51, 46, 39, 33, 15, 0, 0, 0, 0, 0, 0, 0, 0, 0, 0, 0, 0, 0, 0, 0, 0, 0, 0, 0, 0, 0, 0, 0, 0, 0, 0, 0, 0, 0, 0, 0, 0, 0, 0, 0, 0, 0, 0, 0, 0, 0, 0, 0, 0, 0, 0, 0, 0, 0, 0, 0, 0, 0, 0, 0, 0, 0, 0, 0, 0
0, 0, 58, 2, 5, 13, 13, 30, 45, 49, 93, 95, 117, 142, 146, 180, 183, 201, 200, 225, 245, 225, 224, 233, 233, 252, 227, 214, 193, 194, 185, 179, 158, 168, 152, 141, 146, 123, 116, 80, 83, 84, 61, 40, 45, 13, 0, 0, 0, 0, 0, 0, 0, 0, 0, 0, 0, 0, 0, 0, 0, 0, 0, 0, 0, 0, 0, 0, 0, 0, 0, 0, 0, 0, 0, 0, 0, 0, 0, 0, 0, 0, 0, 0, 0, 0, 0, 0, 0, 0, 0, 0, 0, 0, 0, 0, 0, 0, 0, 0, 0, 0, 0, 0, 0, 0
0, 0, 59, 1, 4, 9, 25, 27, 40, 62, 129, 102, 112, 150, 165, 210, 206, 205, 202, 224, 260, 225, 224, 232, 252, 234, 218, 225, 237, 189, 169, 185, 196, 155, 170, 152, 131, 113, 122, 94, 76, 87, 59, 67, 41, 16, 0, 0, 0, 0, 0, 0, 0, 0, 0, 0, 0, 0, 0, 0, 0, 0, 0, 0, 0, 0, 0, 0, 0, 0, 0, 0, 0, 0, 0, 0, 0, 0, 0, 0, 0, 0, 0, 0, 0, 0, 0, 0, 0, 0, 0, 0, 0, 0, 0, 0, 0, 0, 0, 0, 0, 0, 0, 0, 0, 0
0, 0, 60, 4, 3, 7, 14, 21, 40, 58, 127, 77, 111, 154, 154, 203, 186, 251, 221, 225, 261, 235, 246, 249, 274, 234, 243, 222, 219, 201, 219, 191, 166, 168, 138, 142, 135, 124, 114, 100, 82, 81, 52, 54, 38, 26, 1, 0, 0, 0, 0, 0, 0, 0, 0, 0, 0, 0, 0, 0, 0, 0, 0, 0, 0, 0, 0, 0, 0, 0, 0, 0, 0, 0, 0, 0, 0, 0, 0, 0, 0, 0, 0, 0, 0, 0, 0, 0, 0, 0, 0, 0, 0, 0, 0, 0, 0, 0, 0, 0, 0, 0, 0, 0, 0, 0
0, 0, 61, 0, 3, 11, 15, 33, 40, 53, 105, 92, 106, 140, 153, 196, 191, 186, 230, 215, 298, 269, 258, 266, 256, 253, 247, 271, 193, 191, 223, 201, 194, 171, 156, 154, 127, 122, 118, 109, 89, 99, 63, 47, 39, 24, 0, 0, 0, 0, 0, 0, 0, 0, 0, 0, 0, 0, 0, 0, 0, 0, 0, 0, 0, 0, 0, 0, 0, 0, 0, 0, 0, 0, 0, 0, 0, 0, 0, 0, 0, 0, 0, 0, 0, 0, 0, 0, 0, 0, 0, 0, 0, 0, 0, 0, 0, 0, 0, 0, 0, 0, 0, 0, 0, 0
0, 0, 62, 7, 2, 12, 16, 29, 35, 54, 114, 108, 115, 145, 164, 199, 194, 209, 217, 262, 234, 235, 220, 221, 266, 255, 236, 219, 235, 155, 180, 183, 184, 176, 170, 153, 136, 122, 117, 102, 80, 71, 58, 41, 34, 22, 0, 0, 0, 0, 0, 0, 0, 0, 0, 0, 0, 0, 0, 0, 0, 0, 0, 0, 0, 0, 0, 0, 0, 0, 0, 0, 0, 0, 0, 0, 0, 0, 0, 0, 0, 0, 0, 0, 0, 0, 0, 0, 0, 0, 0, 0, 0, 0, 0, 0, 0, 0, 0, 0, 0, 0, 0, 0, 0, 0
0, 0, 63, 6, 1, 7, 15, 25, 44, 48, 96, 108, 135, 142, 177, 179, 227, 189, 197, 244, 237, 207, 262, 231, 276, 243, 242, 225, 216, 203, 220, 192, 174, 165, 153, 151, 137, 124, 98, 108, 96, 73, 71, 59, 42, 18, 0, 0, 0, 0, 0, 0, 0, 0, 0, 0, 0, 0, 0, 0, 0, 0, 0, 0, 0, 0, 0, 0, 0, 0, 0, 0, 0, 0, 0, 0, 0, 0, 0, 0, 0, 0, 0, 0, 0, 0, 0, 0, 0, 0, 0, 0, 0, 0, 0, 0, 0, 0, 0, 0, 0, 0, 0, 0, 0, 0
0, 0, 64, 1, 2, 8, 13, 22, 33, 59, 97, 101, 115, 157, 181, 201, 233, 200, 217, 272, 235, 268, 245, 239, 221, 226, 238, 212, 212, 198, 217, 194, 225, 162, 148, 151, 117, 119, 92, 121, 96, 80, 70, 51, 41, 20, 2, 0, 0, 0, 0, 0, 0, 0, 0, 0, 0, 0, 0, 0, 0, 0, 0, 0, 0, 0, 0, 0, 0, 0, 0, 0, 0, 0, 0, 0, 0, 0, 0, 0, 0, 0, 0, 0, 0, 0, 0, 0, 0, 0, 0, 0, 0, 0, 0, 0, 0, 0, 0, 0, 0, 0, 0, 0, 0, 0
0, 0, 65, 1, 2, 6, 18, 21, 43, 57, 120, 83, 122, 158, 191, 193, 183, 183, 233, 241, 243, 274, 219, 247, 225, 263, 250, 197, 215, 219, 252, 178, 160, 152, 160, 144, 122, 123, 127, 95, 99, 92, 66, 50, 36, 22, 1, 0, 0, 0, 0, 0, 0, 0, 0, 0, 0, 0, 0, 0, 0, 0, 0, 0, 0, 0, 0, 0, 0, 0, 0, 0, 0, 0, 0, 0, 0, 0, 0, 0, 0, 0, 0, 0, 0, 0, 0, 0, 0, 0, 0, 0, 0, 0, 0, 0, 0, 0, 0, 0, 0, 0, 0, 0, 0, 0
0, 0, 66, 0, 3, 9, 15, 39, 39, 58, 113, 83, 119, 124, 162, 223, 201, 197, 233, 231, 249, 231, 235, 287, 242, 241, 226, 227, 196, 205, 204, 219, 181, 201, 159, 135, 132, 124, 101, 109, 84, 80, 66, 57, 44, 19, 0, 0, 0, 0, 0, 0, 0, 0, 0, 0, 0, 0, 0, 0, 0, 0, 0, 0, 0, 0, 0, 0, 0, 0, 0, 0, 0, 0, 0, 0, 0, 0, 0, 0, 0, 0, 0, 0, 0, 0, 0, 0, 0, 0, 0, 0, 0, 0, 0, 0, 0, 0, 0, 0, 0, 0, 0, 0, 0, 0
0, 0, 67, 2, 2, 9, 14, 19, 36, 48, 144, 101, 111, 150, 196, 174, 186, 243, 221, 250, 235, 240, 255, 235, 245, 236, 221, 243, 243, 212, 208, 195, 160, 184, 159, 155, 135, 118, 122, 83, 100, 71, 72, 58, 35, 23, 0, 0, 0, 0, 0, 0, 0, 0, 0, 0, 0, 0, 0, 0, 0, 0, 0, 0, 0, 0, 0, 0, 0, 0, 0, 0, 0, 0, 0, 0, 0, 0, 0, 0, 0, 0, 0, 0, 0, 0, 0, 0, 0, 0, 0, 0, 0, 0, 0, 0, 0, 0, 0, 0, 0, 0, 0, 0, 0, 0
0, 0, 68, 5, 9, 7, 14, 25, 23, 56, 127, 102, 119, 164, 196, 190, 200, 192, 220, 234, 266, 274, 240, 244, 248, 248, 232, 232, 206, 202, 220, 198, 198, 169, 158, 161, 127, 140, 119, 93, 97, 90, 64, 45, 49, 30, 2, 0, 0, 0, 0, 0, 0, 0, 0, 0, 0, 0, 0, 0, 0, 0, 0, 0, 0, 0, 0, 0, 0, 0, 0, 0, 0, 0, 0, 0, 0, 0, 0, 0, 0, 0, 0, 0, 0, 0, 0, 0, 0, 0, 0, 0, 0, 0, 0, 0, 0, 0, 0, 0, 0, 0, 0, 0, 0, 0
0, 0, 69, 0, 4, 9, 11, 23, 45, 62, 118, 101, 120, 174, 180, 191, 187, 243, 203, 232, 243, 252, 253, 217, 262, 240, 256, 231, 216, 214, 184, 178, 177, 174, 127, 146, 141, 118, 129, 109, 89, 73, 72, 52, 41, 32, 3, 0, 0, 0, 0, 0, 0, 0, 0, 0, 0, 0, 0, 0, 0, 0, 0, 0, 0, 0, 0, 0, 0, 0, 0, 0, 0, 0, 0, 0, 0, 0, 0, 0, 0, 0, 0, 0, 0, 0, 0, 0, 0, 0, 0, 0, 0, 0, 0, 0, 0, 0, 0, 0, 0, 0, 0, 0, 0, 0
0, 0, 70, 6, 2, 7, 16, 31, 37, 52, 118, 89, 110, 138, 167, 167, 199, 174, 246, 262, 279, 275, 261, 233, 243, 264, 237, 197, 214, 206, 178, 192, 170, 148, 138, 154, 158, 110, 119, 101, 81, 89, 66, 59, 49, 13, 0, 0, 0, 0, 0, 0, 0, 0, 0, 0, 0, 0, 0, 0, 0, 0, 0, 0, 0, 0, 0, 0, 0, 0, 0, 0, 0, 0, 0, 0, 0, 0, 0, 0, 0, 0, 0, 0, 0, 0, 0, 0, 0, 0, 0, 0, 0, 0, 0, 0, 0, 0, 0, 0, 0, 0, 0, 0, 0, 0
0, 0, 71, 6, 1, 6, 16, 25, 41, 57, 119, 95, 115, 139, 178, 179, 180, 224, 249, 210, 247, 274, 250, 303, 225, 255, 251, 224, 238, 192, 190, 204, 177, 172, 192, 152, 129, 136, 126, 111, 80, 70, 51, 70, 39, 20, 2, 0, 0, 0, 0, 0, 0, 0, 0, 0, 0, 0, 0, 0, 0, 0, 0, 0, 0, 0, 0, 0, 0, 0, 0, 0, 0, 0, 0, 0, 0, 0, 0, 0, 0, 0, 0, 0, 0, 0, 0, 0, 0, 0, 0, 0, 0, 0, 0, 0, 0, 0, 0, 0, 0, 0, 0, 0, 0, 0
0, 0, 72, 8, 2, 10, 14, 30, 38, 56, 122, 106, 124, 149, 168, 187, 195, 240, 247, 260, 279, 261, 279, 233, 254, 268, 262, 209, 225, 204, 182, 171, 208, 156, 139, 147, 146, 136, 123, 113, 99, 80, 74, 49, 47, 27, 0, 0, 0, 0, 0, 0, 0, 0, 0, 0, 0, 0, 0, 0, 0, 0, 0, 0, 0, 0, 0, 0, 0, 0, 0, 0, 0, 0, 0, 0, 0, 0, 0, 0, 0, 0, 0, 0, 0, 0, 0, 0, 0, 0, 0, 0, 0, 0, 0, 0, 0, 0, 0, 0, 0, 0, 0, 0, 0, 0
0, 0, 73, 7, 2, 8, 16, 24, 36, 63, 122, 95, 115, 183, 173, 207, 199, 204, 234, 261, 257, 267, 273, 247, 245, 256, 213, 244, 209, 162, 230, 177, 189, 143, 151, 150, 113, 150, 117, 95, 85, 73, 68, 62, 42, 24, 2, 0, 0, 0, 0, 0, 0, 0, 0, 0, 0, 0, 0, 0, 0, 0, 0, 0, 0, 0, 0, 0, 0, 0, 0, 0, 0, 0, 0, 0, 0, 0, 0, 0, 0, 0, 0, 0, 0, 0, 0, 0, 0, 0, 0, 0, 0, 0, 0, 0, 0, 0, 0, 0, 0, 0, 0, 0, 0, 0
0, 0, 74, 2, 4, 3, 8, 19, 42, 51, 113, 88, 109, 127, 166, 203, 198, 210, 245, 211, 228, 233, 250, 222, 252, 258, 246, 237, 220, 188, 214, 204, 150, 168, 155, 153, 154, 126, 102, 86, 89, 73, 77, 43, 46, 18, 2, 0, 0, 0, 0, 0, 0, 0, 0, 0, 0, 0, 0, 0, 0, 0, 0, 0, 0, 0, 0, 0, 0, 0, 0, 0, 0, 0, 0, 0, 0, 0, 0, 0, 0, 0, 0, 0, 0, 0, 0, 0, 0, 0, 0, 0, 0, 0, 0, 0, 0, 0, 0, 0, 0, 0, 0, 0, 0, 0
0, 0, 75, 4, 9, 4, 19, 30, 38, 61, 101, 71, 121, 150, 150, 188, 204, 233, 236, 233, 232, 243, 258, 222, 233, 265, 245, 200, 199, 239, 188, 213, 171, 181, 156, 130, 127, 115, 121, 91, 89, 74, 71, 61, 48, 14, 2, 0, 0, 0, 0, 0, 0, 0, 0, 0, 0, 0, 0, 0, 0, 0, 0, 0, 0, 0, 0, 0, 0, 0, 0, 0, 0, 0, 0, 0, 0, 0, 0, 0, 0, 0, 0, 0, 0, 0, 0, 0, 0, 0, 0, 0, 0, 0, 0, 0, 0, 0, 0, 0, 0, 0, 0, 0, 0, 0
0, 0, 76, 6, 3, 10, 14, 31, 36, 65, 96, 106, 122, 154, 141, 197, 215, 234, 215, 231, 230, 277, 240, 269, 286, 192, 258, 243, 223, 212, 200, 210, 177, 177, 148, 145, 161, 120, 125, 98, 68, 73, 66, 61, 40, 24, 0, 0, 0, 0, 0, 0, 0, 0, 0, 0, 0, 0, 0, 0, 0, 0, 0, 0, 0, 0, 0, 0, 0, 0, 0, 0, 0, 0, 0, 0, 0, 0, 0, 0, 0, 0, 0, 0, 0, 0, 0, 0, 0, 0, 0, 0, 0, 0, 0, 0, 0, 0, 0, 0, 0, 0, 0, 0, 0, 0
0, 0, 77, 3, 6, 9, 7, 21, 30, 51, 114, 92, 148, 149, 219, 216, 210, 203, 204, 250, 252, 230, 233, 237, 247, 232, 241, 214, 244, 205, 189, 187, 196, 164, 166, 167, 130, 140, 110, 99, 73, 97, 73, 61, 39, 15, 0, 0, 0, 0, 0, 0, 0, 0, 0, 0, 0, 0, 0, 0, 0, 0, 0, 0, 0, 0, 0, 0, 0, 0, 0, 0, 0, 0, 0, 0, 0, 0, 0, 0, 0, 0, 0, 0, 0, 0, 0, 0, 0, 0, 0, 0, 0, 0, 0, 0, 0, 0, 0, 0, 0, 0, 0, 0, 0, 0
