# TOPAS Version: 3.1.p3
# Parameter File: REDLEN_small_phantom_mc_basic_4cm.txt
# Results for scorer PhantomDose
# Scored on surface: CdTeCrystal1/YPlusSurface
# X in 100 bins of 0.03332 cm
# Y in 1 bin  of 0.4 cm
# Z in 100 bins of 0.0375 cm
# SurfaceTrackCount : Sum   
# Binned by incident track energy in 100 bins of 0.00104 MeV from 0.016 MeV to 0.12 MeV
# First bin is underflow, next to last bin is overflow, last bin is for case of no incident track.
0, 0, 0, 0, 0, 0, 0, 0, 0, 1, 0, 2, 2, 0, 1, 0, 1, 1, 1, 0, 0, 3, 2, 3, 2, 1, 3, 3, 0, 3, 1, 2, 0, 1, 1, 2, 1, 1, 1, 0, 3, 1, 1, 0, 0, 0, 0, 0, 0, 0, 0, 0, 0, 0, 0, 0, 0, 0, 0, 0, 0, 0, 0, 0, 0, 0, 0, 0, 0, 0, 0, 0, 0, 0, 0, 0, 0, 0, 0, 0, 0, 0, 0, 0, 0, 0, 0, 0, 0, 0, 0, 0, 0, 0, 0, 0, 0, 0, 0, 0, 0, 0, 0, 0, 0, 0
0, 0, 1, 4, 0, 0, 0, 0, 0, 0, 1, 1, 0, 1, 0, 1, 3, 2, 1, 5, 1, 4, 4, 3, 3, 2, 3, 4, 0, 3, 3, 3, 3, 4, 1, 0, 1, 3, 2, 0, 1, 2, 0, 2, 0, 1, 0, 0, 0, 0, 0, 0, 0, 0, 0, 0, 0, 0, 0, 0, 0, 0, 0, 0, 0, 0, 0, 0, 0, 0, 0, 0, 0, 0, 0, 0, 0, 0, 0, 0, 0, 0, 0, 0, 0, 0, 0, 0, 0, 0, 0, 0, 0, 0, 0, 0, 0, 0, 0, 0, 0, 0, 0, 0, 0, 0
0, 0, 2, 0, 0, 0, 0, 0, 0, 0, 0, 0, 0, 1, 2, 1, 0, 2, 2, 4, 0, 3, 4, 3, 2, 1, 1, 1, 1, 3, 0, 2, 3, 2, 2, 1, 1, 1, 1, 0, 1, 2, 0, 0, 0, 0, 0, 0, 0, 0, 0, 0, 0, 0, 0, 0, 0, 0, 0, 0, 0, 0, 0, 0, 0, 0, 0, 0, 0, 0, 0, 0, 0, 0, 0, 0, 0, 0, 0, 0, 0, 0, 0, 0, 0, 0, 0, 0, 0, 0, 0, 0, 0, 0, 0, 0, 0, 0, 0, 0, 0, 0, 0, 0, 0, 0
0, 0, 3, 3, 0, 0, 0, 0, 1, 1, 1, 0, 0, 0, 1, 1, 2, 0, 3, 1, 4, 2, 3, 3, 4, 2, 2, 5, 2, 4, 2, 4, 2, 4, 2, 3, 1, 7, 0, 2, 2, 2, 1, 0, 0, 0, 0, 0, 0, 0, 0, 0, 0, 0, 0, 0, 0, 0, 0, 0, 0, 0, 0, 0, 0, 0, 0, 0, 0, 0, 0, 0, 0, 0, 0, 0, 0, 0, 0, 0, 0, 0, 0, 0, 0, 0, 0, 0, 0, 0, 0, 0, 0, 0, 0, 0, 0, 0, 0, 0, 0, 0, 0, 0, 0, 0
0, 0, 4, 1, 0, 0, 0, 0, 0, 0, 1, 0, 1, 1, 2, 0, 2, 2, 1, 0, 1, 5, 2, 4, 2, 2, 4, 1, 3, 2, 1, 1, 2, 0, 1, 3, 0, 0, 0, 0, 4, 1, 1, 2, 0, 0, 0, 0, 0, 0, 0, 0, 0, 0, 0, 0, 0, 0, 0, 0, 0, 0, 0, 0, 0, 0, 0, 0, 0, 0, 0, 0, 0, 0, 0, 0, 0, 0, 0, 0, 0, 0, 0, 0, 0, 0, 0, 0, 0, 0, 0, 0, 0, 0, 0, 0, 0, 0, 0, 0, 0, 0, 0, 0, 0, 0
0, 0, 5, 0, 0, 5, 8, 13, 20, 27, 51, 33, 57, 60, 81, 83, 96, 85, 83, 95, 107, 101, 105, 93, 92, 86, 116, 91, 101, 87, 75, 88, 87, 60, 66, 60, 52, 56, 51, 40, 45, 37, 25, 24, 13, 9, 0, 0, 0, 0, 0, 0, 0, 0, 0, 0, 0, 0, 0, 0, 0, 0, 0, 0, 0, 0, 0, 0, 0, 0, 0, 0, 0, 0, 0, 0, 0, 0, 0, 0, 0, 0, 0, 0, 0, 0, 0, 0, 0, 0, 0, 0, 0, 0, 0, 0, 0, 0, 0, 0, 0, 0, 0, 0, 0, 0
0, 0, 6, 2, 6, 8, 26, 22, 40, 64, 113, 108, 116, 127, 164, 226, 211, 210, 237, 243, 263, 260, 214, 266, 258, 230, 215, 240, 216, 221, 221, 200, 179, 180, 142, 151, 144, 143, 99, 86, 95, 79, 65, 51, 50, 26, 1, 0, 0, 0, 0, 0, 0, 0, 0, 0, 0, 0, 0, 0, 0, 0, 0, 0, 0, 0, 0, 0, 0, 0, 0, 0, 0, 0, 0, 0, 0, 0, 0, 0, 0, 0, 0, 0, 0, 0, 0, 0, 0, 0, 0, 0, 0, 0, 0, 0, 0, 0, 0, 0, 0, 0, 0, 0, 0, 0
0, 0, 7, 6, 4, 6, 15, 31, 24, 61, 128, 101, 124, 161, 167, 174, 195, 257, 215, 230, 259, 266, 231, 244, 234, 220, 249, 253, 222, 221, 227, 189, 176, 170, 157, 153, 123, 109, 95, 122, 100, 91, 71, 60, 44, 22, 0, 0, 0, 0, 0, 0, 0, 0, 0, 0, 0, 0, 0, 0, 0, 0, 0, 0, 0, 0, 0, 0, 0, 0, 0, 0, 0, 0, 0, 0, 0, 0, 0, 0, 0, 0, 0, 0, 0, 0, 0, 0, 0, 0, 0, 0, 0, 0, 0, 0, 0, 0, 0, 0, 0, 0, 0, 0, 0, 0
0, 0, 8, 2, 7, 6, 14, 21, 30, 49, 126, 107, 117, 138, 150, 198, 199, 179, 212, 245, 237, 266, 260, 239, 237, 223, 262, 215, 230, 225, 216, 173, 174, 187, 179, 156, 125, 103, 88, 104, 105, 76, 65, 59, 32, 25, 2, 0, 0, 0, 0, 0, 0, 0, 0, 0, 0, 0, 0, 0, 0, 0, 0, 0, 0, 0, 0, 0, 0, 0, 0, 0, 0, 0, 0, 0, 0, 0, 0, 0, 0, 0, 0, 0, 0, 0, 0, 0, 0, 0, 0, 0, 0, 0, 0, 0, 0, 0, 0, 0, 0, 0, 0, 0, 0, 0
0, 0, 9, 1, 2, 9, 14, 29, 35, 54, 110, 102, 114, 128, 163, 196, 176, 209, 251, 250, 235, 244, 249, 244, 259, 252, 229, 221, 237, 208, 225, 186, 188, 180, 130, 166, 128, 119, 114, 96, 95, 67, 75, 39, 46, 20, 3, 0, 0, 0, 0, 0, 0, 0, 0, 0, 0, 0, 0, 0, 0, 0, 0, 0, 0, 0, 0, 0, 0, 0, 0, 0, 0, 0, 0, 0, 0, 0, 0, 0, 0, 0, 0, 0, 0, 0, 0, 0, 0, 0, 0, 0, 0, 0, 0, 0, 0, 0, 0, 0, 0, 0, 0, 0, 0, 0
0, 0, 10, 0, 6, 7, 17, 33, 38, 57, 110, 89, 128, 138, 160, 206, 221, 203, 229, 243, 261, 248, 245, 224, 228, 241, 217, 245, 196, 204, 202, 183, 181, 165, 159, 116, 142, 137, 125, 85, 91, 84, 70, 47, 33, 24, 2, 0, 0, 0, 0, 0, 0, 0, 0, 0, 0, 0, 0, 0, 0, 0, 0, 0, 0, 0, 0, 0, 0, 0, 0, 0, 0, 0, 0, 0, 0, 0, 0, 0, 0, 0, 0, 0, 0, 0, 0, 0, 0, 0, 0, 0, 0, 0, 0, 0, 0, 0, 0, 0, 0, 0, 0, 0, 0, 0
0, 0, 11, 4, 2, 3, 10, 32, 42, 56, 114, 90, 131, 131, 169, 182, 186, 245, 212, 241, 267, 231, 261, 260, 229, 272, 229, 224, 190, 212, 223, 188, 173, 167, 166, 163, 156, 127, 123, 98, 90, 83, 55, 74, 49, 9, 1, 0, 0, 0, 0, 0, 0, 0, 0, 0, 0, 0, 0, 0, 0, 0, 0, 0, 0, 0, 0, 0, 0, 0, 0, 0, 0, 0, 0, 0, 0, 0, 0, 0, 0, 0, 0, 0, 0, 0, 0, 0, 0, 0, 0, 0, 0, 0, 0, 0, 0, 0, 0, 0, 0, 0, 0, 0, 0, 0
0, 0, 12, 2, 3, 5, 16, 17, 38, 52, 119, 94, 102, 139, 166, 226, 191, 209, 207, 238, 243, 269, 226, 259, 248, 236, 245, 232, 221, 208, 194, 188, 205, 167, 173, 175, 139, 125, 117, 107, 114, 78, 69, 47, 55, 18, 1, 0, 0, 0, 0, 0, 0, 0, 0, 0, 0, 0, 0, 0, 0, 0, 0, 0, 0, 0, 0, 0, 0, 0, 0, 0, 0, 0, 0, 0, 0, 0, 0, 0, 0, 0, 0, 0, 0, 0, 0, 0, 0, 0, 0, 0, 0, 0, 0, 0, 0, 0, 0, 0, 0, 0, 0, 0, 0, 0
0, 0, 13, 5, 7, 7, 8, 26, 31, 51, 131, 101, 114, 128, 147, 200, 194, 192, 224, 262, 261, 239, 235, 276, 235, 237, 205, 217, 238, 187, 210, 181, 177, 197, 170, 132, 138, 116, 108, 97, 102, 83, 62, 56, 48, 15, 3, 0, 0, 0, 0, 0, 0, 0, 0, 0, 0, 0, 0, 0, 0, 0, 0, 0, 0, 0, 0, 0, 0, 0, 0, 0, 0, 0, 0, 0, 0, 0, 0, 0, 0, 0, 0, 0, 0, 0, 0, 0, 0, 0, 0, 0, 0, 0, 0, 0, 0, 0, 0, 0, 0, 0, 0, 0, 0, 0
0, 0, 14, 4, 1, 12, 9, 25, 49, 57, 115, 99, 129, 121, 166, 221, 187, 184, 249, 256, 238, 233, 269, 249, 268, 249, 225, 235, 207, 224, 169, 180, 195, 155, 161, 131, 120, 129, 125, 107, 82, 74, 78, 48, 25, 25, 1, 0, 0, 0, 0, 0, 0, 0, 0, 0, 0, 0, 0, 0, 0, 0, 0, 0, 0, 0, 0, 0, 0, 0, 0, 0, 0, 0, 0, 0, 0, 0, 0, 0, 0, 0, 0, 0, 0, 0, 0, 0, 0, 0, 0, 0, 0, 0, 0, 0, 0, 0, 0, 0, 0, 0, 0, 0, 0, 0
0, 0, 15, 1, 1, 7, 11, 28, 37, 51, 120, 102, 115, 130, 161, 194, 182, 206, 247, 240, 237, 255, 262, 235, 214, 243, 242, 230, 257, 202, 195, 165, 191, 170, 155, 121, 128, 122, 128, 120, 97, 84, 60, 44, 38, 20, 0, 0, 0, 0, 0, 0, 0, 0, 0, 0, 0, 0, 0, 0, 0, 0, 0, 0, 0, 0, 0, 0, 0, 0, 0, 0, 0, 0, 0, 0, 0, 0, 0, 0, 0, 0, 0, 0, 0, 0, 0, 0, 0, 0, 0, 0, 0, 0, 0, 0, 0, 0, 0, 0, 0, 0, 0, 0, 0, 0
0, 0, 16, 2, 4, 9, 12, 29, 31, 69, 135, 110, 114, 125, 208, 203, 193, 209, 257, 270, 234, 284, 243, 272, 247, 226, 270, 253, 204, 212, 168, 188, 171, 179, 146, 155, 146, 116, 123, 95, 99, 84, 67, 46, 36, 24, 2, 0, 0, 0, 0, 0, 0, 0, 0, 0, 0, 0, 0, 0, 0, 0, 0, 0, 0, 0, 0, 0, 0, 0, 0, 0, 0, 0, 0, 0, 0, 0, 0, 0, 0, 0, 0, 0, 0, 0, 0, 0, 0, 0, 0, 0, 0, 0, 0, 0, 0, 0, 0, 0, 0, 0, 0, 0, 0, 0
0, 0, 17, 1, 4, 15, 15, 27, 39, 52, 133, 80, 104, 141, 195, 202, 212, 205, 251, 234, 263, 248, 189, 249, 242, 266, 235, 220, 229, 208, 203, 192, 164, 176, 155, 162, 125, 129, 114, 95, 81, 73, 72, 64, 30, 19, 1, 0, 0, 0, 0, 0, 0, 0, 0, 0, 0, 0, 0, 0, 0, 0, 0, 0, 0, 0, 0, 0, 0, 0, 0, 0, 0, 0, 0, 0, 0, 0, 0, 0, 0, 0, 0, 0, 0, 0, 0, 0, 0, 0, 0, 0, 0, 0, 0, 0, 0, 0, 0, 0, 0, 0, 0, 0, 0, 0
0, 0, 18, 2, 3, 4, 19, 24, 40, 68, 106, 80, 127, 152, 163, 162, 202, 234, 228, 242, 243, 277, 236, 266, 212, 245, 222, 206, 266, 198, 188, 177, 195, 169, 161, 151, 140, 123, 97, 107, 92, 75, 68, 59, 38, 21, 0, 0, 0, 0, 0, 0, 0, 0, 0, 0, 0, 0, 0, 0, 0, 0, 0, 0, 0, 0, 0, 0, 0, 0, 0, 0, 0, 0, 0, 0, 0, 0, 0, 0, 0, 0, 0, 0, 0, 0, 0, 0, 0, 0, 0, 0, 0, 0, 0, 0, 0, 0, 0, 0, 0, 0, 0, 0, 0, 0
0, 0, 19, 6, 7, 9, 13, 29, 44, 39, 124, 87, 127, 147, 184, 187, 198, 203, 215, 255, 233, 246, 248, 229, 235, 240, 225, 199, 218, 191, 203, 187, 147, 168, 166, 156, 149, 128, 133, 116, 87, 83, 73, 67, 43, 22, 3, 0, 0, 0, 0, 0, 0, 0, 0, 0, 0, 0, 0, 0, 0, 0, 0, 0, 0, 0, 0, 0, 0, 0, 0, 0, 0, 0, 0, 0, 0, 0, 0, 0, 0, 0, 0, 0, 0, 0, 0, 0, 0, 0, 0, 0, 0, 0, 0, 0, 0, 0, 0, 0, 0, 0, 0, 0, 0, 0
0, 0, 20, 0, 5, 6, 15, 29, 46, 35, 119, 113, 93, 131, 195, 200, 231, 187, 200, 231, 257, 259, 234, 243, 216, 266, 254, 245, 218, 231, 217, 196, 178, 168, 150, 177, 122, 110, 96, 91, 100, 79, 51, 60, 35, 21, 2, 0, 0, 0, 0, 0, 0, 0, 0, 0, 0, 0, 0, 0, 0, 0, 0, 0, 0, 0, 0, 0, 0, 0, 0, 0, 0, 0, 0, 0, 0, 0, 0, 0, 0, 0, 0, 0, 0, 0, 0, 0, 0, 0, 0, 0, 0, 0, 0, 0, 0, 0, 0, 0, 0, 0, 0, 0, 0, 0
0, 0, 21, 9, 1, 8, 10, 35, 41, 66, 119, 93, 131, 137, 170, 181, 200, 225, 254, 252, 247, 224, 234, 262, 238, 226, 234, 257, 225, 231, 195, 172, 164, 161, 159, 142, 129, 113, 119, 98, 108, 82, 62, 56, 41, 21, 3, 0, 0, 0, 0, 0, 0, 0, 0, 0, 0, 0, 0, 0, 0, 0, 0, 0, 0, 0, 0, 0, 0, 0, 0, 0, 0, 0, 0, 0, 0, 0, 0, 0, 0, 0, 0, 0, 0, 0, 0, 0, 0, 0, 0, 0, 0, 0, 0, 0, 0, 0, 0, 0, 0, 0, 0, 0, 0, 0
0, 0, 22, 3, 1, 10, 11, 21, 39, 69, 115, 96, 113, 155, 185, 173, 203, 224, 207, 216, 223, 252, 245, 226, 253, 230, 210, 238, 211, 205, 192, 184, 173, 156, 151, 137, 128, 152, 107, 94, 93, 79, 54, 66, 53, 22, 3, 0, 0, 0, 0, 0, 0, 0, 0, 0, 0, 0, 0, 0, 0, 0, 0, 0, 0, 0, 0, 0, 0, 0, 0, 0, 0, 0, 0, 0, 0, 0, 0, 0, 0, 0, 0, 0, 0, 0, 0, 0, 0, 0, 0, 0, 0, 0, 0, 0, 0, 0, 0, 0, 0, 0, 0, 0, 0, 0
0, 0, 23, 6, 5, 5, 12, 33, 40, 51, 120, 88, 104, 166, 153, 210, 179, 199, 224, 215, 254, 256, 230, 252, 230, 279, 227, 213, 230, 228, 210, 190, 199, 180, 170, 152, 138, 136, 114, 97, 75, 70, 78, 45, 44, 26, 4, 0, 0, 0, 0, 0, 0, 0, 0, 0, 0, 0, 0, 0, 0, 0, 0, 0, 0, 0, 0, 0, 0, 0, 0, 0, 0, 0, 0, 0, 0, 0, 0, 0, 0, 0, 0, 0, 0, 0, 0, 0, 0, 0, 0, 0, 0, 0, 0, 0, 0, 0, 0, 0, 0, 0, 0, 0, 0, 0
0, 0, 24, 10, 2, 6, 18, 28, 33, 59, 105, 99, 115, 153, 168, 175, 187, 207, 257, 238, 244, 253, 245, 281, 254, 242, 204, 191, 248, 178, 179, 188, 183, 155, 179, 166, 129, 145, 121, 94, 82, 82, 60, 57, 44, 13, 0, 0, 0, 0, 0, 0, 0, 0, 0, 0, 0, 0, 0, 0, 0, 0, 0, 0, 0, 0, 0, 0, 0, 0, 0, 0, 0, 0, 0, 0, 0, 0, 0, 0, 0, 0, 0, 0, 0, 0, 0, 0, 0, 0, 0, 0, 0, 0, 0, 0, 0, 0, 0, 0, 0, 0, 0, 0, 0, 0
0, 0, 25, 4, 5, 7, 17, 29, 33, 69, 108, 103, 118, 125, 185, 210, 196, 226, 197, 243, 228, 280, 241, 254, 234, 245, 227, 241, 238, 186, 198, 196, 198, 157, 166, 131, 145, 123, 117, 100, 93, 76, 68, 45, 34, 21, 0, 0, 0, 0, 0, 0, 0, 0, 0, 0, 0, 0, 0, 0, 0, 0, 0, 0, 0, 0, 0, 0, 0, 0, 0, 0, 0, 0, 0, 0, 0, 0, 0, 0, 0, 0, 0, 0, 0, 0, 0, 0, 0, 0, 0, 0, 0, 0, 0, 0, 0, 0, 0, 0, 0, 0, 0, 0, 0, 0
0, 0, 26, 2, 2, 3, 17, 31, 43, 53, 104, 98, 116, 159, 186, 192, 205, 215, 231, 219, 230, 281, 247, 215, 249, 221, 222, 224, 216, 199, 193, 188, 177, 167, 145, 151, 143, 132, 108, 97, 82, 65, 75, 38, 42, 22, 3, 0, 0, 0, 0, 0, 0, 0, 0, 0, 0, 0, 0, 0, 0, 0, 0, 0, 0, 0, 0, 0, 0, 0, 0, 0, 0, 0, 0, 0, 0, 0, 0, 0, 0, 0, 0, 0, 0, 0, 0, 0, 0, 0, 0, 0, 0, 0, 0, 0, 0, 0, 0, 0, 0, 0, 0, 0, 0, 0
0, 0, 27, 5, 0, 1, 14, 21, 25, 50, 132, 102, 125, 150, 158, 211, 199, 231, 230, 259, 306, 289, 242, 242, 288, 248, 228, 208, 212, 182, 190, 183, 207, 166, 190, 164, 153, 126, 126, 121, 84, 88, 66, 47, 45, 24, 2, 0, 0, 0, 0, 0, 0, 0, 0, 0, 0, 0, 0, 0, 0, 0, 0, 0, 0, 0, 0, 0, 0, 0, 0, 0, 0, 0, 0, 0, 0, 0, 0, 0, 0, 0, 0, 0, 0, 0, 0, 0, 0, 0, 0, 0, 0, 0, 0, 0, 0, 0, 0, 0, 0, 0, 0, 0, 0, 0
0, 0, 28, 6, 3, 4, 19, 28, 39, 59, 118, 89, 117, 158, 175, 190, 194, 234, 224, 260, 268, 271, 241, 233, 247, 249, 244, 212, 221, 222, 218, 173, 203, 169, 153, 141, 145, 120, 112, 98, 100, 100, 76, 63, 42, 24, 1, 0, 0, 0, 0, 0, 0, 0, 0, 0, 0, 0, 0, 0, 0, 0, 0, 0, 0, 0, 0, 0, 0, 0, 0, 0, 0, 0, 0, 0, 0, 0, 0, 0, 0, 0, 0, 0, 0, 0, 0, 0, 0, 0, 0, 0, 0, 0, 0, 0, 0, 0, 0, 0, 0, 0, 0, 0, 0, 0
0, 0, 29, 7, 3, 13, 12, 34, 44, 61, 125, 79, 133, 133, 171, 210, 201, 218, 229, 234, 284, 251, 258, 241, 255, 264, 236, 231, 194, 210, 201, 186, 174, 176, 174, 154, 141, 136, 110, 105, 90, 98, 64, 61, 30, 23, 2, 0, 0, 0, 0, 0, 0, 0, 0, 0, 0, 0, 0, 0, 0, 0, 0, 0, 0, 0, 0, 0, 0, 0, 0, 0, 0, 0, 0, 0, 0, 0, 0, 0, 0, 0, 0, 0, 0, 0, 0, 0, 0, 0, 0, 0, 0, 0, 0, 0, 0, 0, 0, 0, 0, 0, 0, 0, 0, 0
0, 0, 30, 4, 1, 8, 15, 23, 43, 57, 128, 81, 136, 155, 151, 198, 209, 179, 206, 217, 246, 234, 235, 248, 234, 229, 215, 227, 204, 189, 237, 192, 173, 214, 155, 152, 129, 99, 130, 111, 87, 102, 63, 46, 29, 14, 1, 0, 0, 0, 0, 0, 0, 0, 0, 0, 0, 0, 0, 0, 0, 0, 0, 0, 0, 0, 0, 0, 0, 0, 0, 0, 0, 0, 0, 0, 0, 0, 0, 0, 0, 0, 0, 0, 0, 0, 0, 0, 0, 0, 0, 0, 0, 0, 0, 0, 0, 0, 0, 0, 0, 0, 0, 0, 0, 0
0, 0, 31, 3, 5, 8, 13, 25, 37, 47, 124, 120, 114, 149, 170, 207, 203, 219, 216, 250, 246, 250, 245, 273, 230, 252, 241, 213, 226, 201, 182, 165, 186, 187, 172, 149, 135, 133, 139, 105, 103, 95, 67, 44, 41, 29, 1, 0, 0, 0, 0, 0, 0, 0, 0, 0, 0, 0, 0, 0, 0, 0, 0, 0, 0, 0, 0, 0, 0, 0, 0, 0, 0, 0, 0, 0, 0, 0, 0, 0, 0, 0, 0, 0, 0, 0, 0, 0, 0, 0, 0, 0, 0, 0, 0, 0, 0, 0, 0, 0, 0, 0, 0, 0, 0, 0
0, 0, 32, 0, 3, 4, 21, 20, 40, 61, 133, 99, 111, 161, 177, 185, 197, 209, 229, 226, 270, 255, 238, 232, 240, 255, 207, 227, 222, 185, 206, 203, 200, 150, 184, 125, 165, 112, 120, 94, 102, 80, 61, 74, 33, 11, 2, 0, 0, 0, 0, 0, 0, 0, 0, 0, 0, 0, 0, 0, 0, 0, 0, 0, 0, 0, 0, 0, 0, 0, 0, 0, 0, 0, 0, 0, 0, 0, 0, 0, 0, 0, 0, 0, 0, 0, 0, 0, 0, 0, 0, 0, 0, 0, 0, 0, 0, 0, 0, 0, 0, 0, 0, 0, 0, 0
0, 0, 33, 1, 1, 8, 12, 33, 45, 58, 125, 93, 122, 155, 176, 189, 199, 239, 217, 261, 265, 238, 238, 222, 257, 244, 232, 216, 215, 213, 199, 187, 177, 159, 153, 163, 131, 133, 126, 101, 88, 98, 59, 51, 44, 32, 0, 0, 0, 0, 0, 0, 0, 0, 0, 0, 0, 0, 0, 0, 0, 0, 0, 0, 0, 0, 0, 0, 0, 0, 0, 0, 0, 0, 0, 0, 0, 0, 0, 0, 0, 0, 0, 0, 0, 0, 0, 0, 0, 0, 0, 0, 0, 0, 0, 0, 0, 0, 0, 0, 0, 0, 0, 0, 0, 0
0, 0, 34, 1, 2, 7, 12, 28, 38, 63, 104, 82, 108, 157, 160, 196, 210, 206, 207, 205, 255, 270, 240, 232, 275, 236, 222, 243, 250, 216, 196, 194, 188, 183, 168, 141, 119, 112, 103, 101, 95, 72, 60, 54, 36, 19, 0, 0, 0, 0, 0, 0, 0, 0, 0, 0, 0, 0, 0, 0, 0, 0, 0, 0, 0, 0, 0, 0, 0, 0, 0, 0, 0, 0, 0, 0, 0, 0, 0, 0, 0, 0, 0, 0, 0, 0, 0, 0, 0, 0, 0, 0, 0, 0, 0, 0, 0, 0, 0, 0, 0, 0, 0, 0, 0, 0
0, 0, 35, 5, 4, 11, 13, 27, 38, 41, 151, 100, 121, 145, 182, 176, 189, 203, 252, 223, 239, 234, 255, 237, 246, 262, 234, 261, 232, 187, 186, 176, 169, 153, 155, 133, 164, 120, 99, 101, 89, 77, 72, 43, 41, 14, 0, 0, 0, 0, 0, 0, 0, 0, 0, 0, 0, 0, 0, 0, 0, 0, 0, 0, 0, 0, 0, 0, 0, 0, 0, 0, 0, 0, 0, 0, 0, 0, 0, 0, 0, 0, 0, 0, 0, 0, 0, 0, 0, 0, 0, 0, 0, 0, 0, 0, 0, 0, 0, 0, 0, 0, 0, 0, 0, 0
0, 0, 36, 1, 5, 10, 9, 29, 26, 62, 121, 97, 114, 140, 152, 196, 209, 214, 225, 247, 247, 230, 267, 232, 268, 208, 234, 220, 243, 165, 211, 172, 187, 173, 182, 141, 130, 145, 116, 105, 73, 85, 71, 58, 32, 24, 2, 0, 0, 0, 0, 0, 0, 0, 0, 0, 0, 0, 0, 0, 0, 0, 0, 0, 0, 0, 0, 0, 0, 0, 0, 0, 0, 0, 0, 0, 0, 0, 0, 0, 0, 0, 0, 0, 0, 0, 0, 0, 0, 0, 0, 0, 0, 0, 0, 0, 0, 0, 0, 0, 0, 0, 0, 0, 0, 0
0, 0, 37, 2, 6, 7, 13, 24, 35, 55, 123, 115, 111, 147, 164, 198, 204, 225, 237, 236, 267, 253, 248, 250, 233, 243, 236, 240, 201, 189, 200, 184, 173, 183, 150, 133, 136, 146, 99, 86, 88, 86, 55, 65, 51, 18, 0, 0, 0, 0, 0, 0, 0, 0, 0, 0, 0, 0, 0, 0, 0, 0, 0, 0, 0, 0, 0, 0, 0, 0, 0, 0, 0, 0, 0, 0, 0, 0, 0, 0, 0, 0, 0, 0, 0, 0, 0, 0, 0, 0, 0, 0, 0, 0, 0, 0, 0, 0, 0, 0, 0, 0, 0, 0, 0, 0
0, 0, 38, 1, 10, 3, 14, 21, 39, 71, 111, 101, 125, 160, 186, 182, 210, 218, 215, 273, 245, 231, 245, 258, 271, 226, 238, 228, 211, 193, 176, 201, 204, 151, 147, 138, 138, 126, 111, 109, 108, 87, 54, 51, 34, 15, 1, 0, 0, 0, 0, 0, 0, 0, 0, 0, 0, 0, 0, 0, 0, 0, 0, 0, 0, 0, 0, 0, 0, 0, 0, 0, 0, 0, 0, 0, 0, 0, 0, 0, 0, 0, 0, 0, 0, 0, 0, 0, 0, 0, 0, 0, 0, 0, 0, 0, 0, 0, 0, 0, 0, 0, 0, 0, 0, 0
0, 0, 39, 2, 2, 8, 15, 28, 42, 60, 122, 98, 112, 156, 179, 200, 202, 197, 219, 261, 268, 245, 242, 240, 246, 219, 246, 225, 225, 176, 192, 200, 177, 175, 154, 176, 157, 133, 122, 122, 85, 77, 68, 53, 30, 23, 2, 0, 0, 0, 0, 0, 0, 0, 0, 0, 0, 0, 0, 0, 0, 0, 0, 0, 0, 0, 0, 0, 0, 0, 0, 0, 0, 0, 0, 0, 0, 0, 0, 0, 0, 0, 0, 0, 0, 0, 0, 0, 0, 0, 0, 0, 0, 0, 0, 0, 0, 0, 0, 0, 0, 0, 0, 0, 0, 0
0, 0, 40, 2, 4, 12, 16, 26, 46, 51, 106, 82, 127, 132, 168, 184, 202, 189, 236, 237, 219, 252, 266, 266, 242, 238, 229, 222, 215, 209, 212, 187, 193, 160, 175, 140, 144, 112, 103, 106, 98, 81, 58, 55, 31, 18, 1, 0, 0, 0, 0, 0, 0, 0, 0, 0, 0, 0, 0, 0, 0, 0, 0, 0, 0, 0, 0, 0, 0, 0, 0, 0, 0, 0, 0, 0, 0, 0, 0, 0, 0, 0, 0, 0, 0, 0, 0, 0, 0, 0, 0, 0, 0, 0, 0, 0, 0, 0, 0, 0, 0, 0, 0, 0, 0, 0
0, 0, 41, 3, 2, 9, 13, 20, 31, 52, 78, 81, 104, 147, 159, 178, 176, 208, 196, 202, 240, 226, 197, 247, 211, 203, 225, 198, 184, 204, 206, 206, 147, 187, 173, 130, 138, 110, 94, 95, 88, 85, 68, 65, 48, 18, 1, 0, 0, 0, 0, 0, 0, 0, 0, 0, 0, 0, 0, 0, 0, 0, 0, 0, 0, 0, 0, 0, 0, 0, 0, 0, 0, 0, 0, 0, 0, 0, 0, 0, 0, 0, 0, 0, 0, 0, 0, 0, 0, 0, 0, 0, 0, 0, 0, 0, 0, 0, 0, 0, 0, 0, 0, 0, 0, 0
0, 0, 42, 1, 2, 5, 11, 15, 35, 42, 74, 71, 81, 93, 137, 142, 139, 143, 189, 167, 181, 205, 184, 186, 179, 179, 160, 168, 166, 168, 156, 148, 131, 131, 126, 104, 111, 111, 102, 84, 59, 52, 48, 57, 26, 10, 0, 0, 0, 0, 0, 0, 0, 0, 0, 0, 0, 0, 0, 0, 0, 0, 0, 0, 0, 0, 0, 0, 0, 0, 0, 0, 0, 0, 0, 0, 0, 0, 0, 0, 0, 0, 0, 0, 0, 0, 0, 0, 0, 0, 0, 0, 0, 0, 0, 0, 0, 0, 0, 0, 0, 0, 0, 0, 0, 0
0, 0, 43, 1, 3, 3, 7, 10, 20, 27, 58, 44, 64, 83, 114, 98, 119, 108, 113, 133, 162, 168, 148, 139, 140, 152, 144, 152, 116, 113, 117, 147, 115, 98, 97, 87, 86, 68, 72, 62, 51, 43, 38, 28, 34, 14, 0, 0, 0, 0, 0, 0, 0, 0, 0, 0, 0, 0, 0, 0, 0, 0, 0, 0, 0, 0, 0, 0, 0, 0, 0, 0, 0, 0, 0, 0, 0, 0, 0, 0, 0, 0, 0, 0, 0, 0, 0, 0, 0, 0, 0, 0, 0, 0, 0, 0, 0, 0, 0, 0, 0, 0, 0, 0, 0, 0
0, 0, 44, 1, 0, 1, 1, 15, 10, 16, 41, 36, 46, 56, 63, 86, 84, 99, 92, 90, 128, 106, 95, 97, 116, 87, 85, 81, 88, 102, 103, 85, 81, 92, 90, 77, 71, 77, 82, 65, 54, 34, 39, 38, 13, 10, 0, 0, 0, 0, 0, 0, 0, 0, 0, 0, 0, 0, 0, 0, 0, 0, 0, 0, 0, 0, 0, 0, 0, 0, 0, 0, 0, 0, 0, 0, 0, 0, 0, 0, 0, 0, 0, 0, 0, 0, 0, 0, 0, 0, 0, 0, 0, 0, 0, 0, 0, 0, 0, 0, 0, 0, 0, 0, 0, 0
0, 0, 45, 0, 1, 1, 9, 9, 10, 9, 23, 22, 33, 33, 47, 60, 69, 59, 47, 71, 85, 86, 100, 87, 77, 89, 93, 80, 76, 60, 69, 74, 54, 62, 70, 54, 63, 43, 43, 51, 38, 43, 23, 26, 14, 6, 0, 0, 0, 0, 0, 0, 0, 0, 0, 0, 0, 0, 0, 0, 0, 0, 0, 0, 0, 0, 0, 0, 0, 0, 0, 0, 0, 0, 0, 0, 0, 0, 0, 0, 0, 0, 0, 0, 0, 0, 0, 0, 0, 0, 0, 0, 0, 0, 0, 0, 0, 0, 0, 0, 0, 0, 0, 0, 0, 0
0, 0, 46, 0, 0, 1, 0, 5, 7, 5, 21, 11, 23, 19, 30, 52, 38, 43, 48, 49, 44, 61, 41, 48, 65, 62, 49, 57, 58, 60, 57, 49, 46, 46, 44, 50, 43, 36, 31, 34, 30, 25, 21, 16, 13, 8, 2, 0, 0, 0, 0, 0, 0, 0, 0, 0, 0, 0, 0, 0, 0, 0, 0, 0, 0, 0, 0, 0, 0, 0, 0, 0, 0, 0, 0, 0, 0, 0, 0, 0, 0, 0, 0, 0, 0, 0, 0, 0, 0, 0, 0, 0, 0, 0, 0, 0, 0, 0, 0, 0, 0, 0, 0, 0, 0, 0
0, 0, 47, 0, 0, 0, 0, 1, 9, 10, 13, 8, 6, 15, 17, 17, 27, 34, 24, 39, 42, 32, 58, 48, 50, 42, 37, 57, 39, 51, 56, 33, 30, 42, 33, 22, 42, 31, 23, 28, 31, 15, 17, 18, 9, 6, 1, 0, 0, 0, 0, 0, 0, 0, 0, 0, 0, 0, 0, 0, 0, 0, 0, 0, 0, 0, 0, 0, 0, 0, 0, 0, 0, 0, 0, 0, 0, 0, 0, 0, 0, 0, 0, 0, 0, 0, 0, 0, 0, 0, 0, 0, 0, 0, 0, 0, 0, 0, 0, 0, 0, 0, 0, 0, 0, 0
0, 0, 48, 0, 0, 0, 0, 1, 3, 2, 10, 3, 4, 9, 6, 16, 17, 17, 16, 19, 34, 27, 29, 24, 30, 34, 25, 33, 50, 55, 36, 36, 29, 25, 34, 29, 31, 23, 31, 23, 22, 21, 11, 12, 9, 6, 1, 0, 0, 0, 0, 0, 0, 0, 0, 0, 0, 0, 0, 0, 0, 0, 0, 0, 0, 0, 0, 0, 0, 0, 0, 0, 0, 0, 0, 0, 0, 0, 0, 0, 0, 0, 0, 0, 0, 0, 0, 0, 0, 0, 0, 0, 0, 0, 0, 0, 0, 0, 0, 0, 0, 0, 0, 0, 0, 0
0, 0, 49, 0, 0, 0, 1, 0, 1, 1, 2, 2, 2, 6, 6, 5, 20, 8, 9, 21, 22, 23, 23, 31, 29, 31, 29, 22, 29, 40, 26, 14, 33, 26, 27, 21, 25, 16, 35, 17, 25, 18, 20, 16, 12, 5, 0, 0, 0, 0, 0, 0, 0, 0, 0, 0, 0, 0, 0, 0, 0, 0, 0, 0, 0, 0, 0, 0, 0, 0, 0, 0, 0, 0, 0, 0, 0, 0, 0, 0, 0, 0, 0, 0, 0, 0, 0, 0, 0, 0, 0, 0, 0, 0, 0, 0, 0, 0, 0, 0, 0, 0, 0, 0, 0, 0
0, 0, 50, 0, 0, 0, 0, 2, 0, 1, 12, 3, 1, 7, 2, 5, 14, 14, 15, 28, 27, 24, 21, 19, 37, 32, 36, 36, 31, 47, 25, 29, 34, 22, 33, 29, 32, 24, 19, 22, 13, 13, 12, 12, 9, 1, 0, 0, 0, 0, 0, 0, 0, 0, 0, 0, 0, 0, 0, 0, 0, 0, 0, 0, 0, 0, 0, 0, 0, 0, 0, 0, 0, 0, 0, 0, 0, 0, 0, 0, 0, 0, 0, 0, 0, 0, 0, 0, 0, 0, 0, 0, 0, 0, 0, 0, 0, 0, 0, 0, 0, 0, 0, 0, 0, 0
0, 0, 51, 0, 1, 0, 2, 1, 4, 1, 7, 5, 8, 10, 19, 12, 18, 18, 15, 26, 33, 26, 40, 24, 27, 40, 33, 29, 36, 36, 35, 31, 32, 26, 34, 28, 35, 24, 18, 33, 22, 12, 12, 5, 7, 5, 1, 0, 0, 0, 0, 0, 0, 0, 0, 0, 0, 0, 0, 0, 0, 0, 0, 0, 0, 0, 0, 0, 0, 0, 0, 0, 0, 0, 0, 0, 0, 0, 0, 0, 0, 0, 0, 0, 0, 0, 0, 0, 0, 0, 0, 0, 0, 0, 0, 0, 0, 0, 0, 0, 0, 0, 0, 0, 0, 0
0, 0, 52, 0, 0, 0, 2, 3, 1, 3, 16, 13, 17, 12, 26, 23, 17, 28, 40, 42, 38, 39, 30, 50, 42, 42, 44, 44, 44, 45, 36, 48, 42, 35, 40, 29, 27, 25, 29, 27, 19, 25, 24, 12, 4, 8, 0, 0, 0, 0, 0, 0, 0, 0, 0, 0, 0, 0, 0, 0, 0, 0, 0, 0, 0, 0, 0, 0, 0, 0, 0, 0, 0, 0, 0, 0, 0, 0, 0, 0, 0, 0, 0, 0, 0, 0, 0, 0, 0, 0, 0, 0, 0, 0, 0, 0, 0, 0, 0, 0, 0, 0, 0, 0, 0, 0
0, 0, 53, 0, 1, 1, 1, 5, 8, 10, 23, 22, 15, 27, 30, 35, 40, 54, 47, 37, 52, 72, 56, 52, 47, 74, 60, 59, 58, 53, 60, 59, 58, 41, 55, 37, 36, 40, 36, 41, 36, 33, 20, 16, 9, 8, 0, 0, 0, 0, 0, 0, 0, 0, 0, 0, 0, 0, 0, 0, 0, 0, 0, 0, 0, 0, 0, 0, 0, 0, 0, 0, 0, 0, 0, 0, 0, 0, 0, 0, 0, 0, 0, 0, 0, 0, 0, 0, 0, 0, 0, 0, 0, 0, 0, 0, 0, 0, 0, 0, 0, 0, 0, 0, 0, 0
0, 0, 54, 0, 1, 2, 7, 4, 18, 14, 28, 22, 33, 43, 49, 68, 49, 64, 69, 70, 68, 73, 74, 94, 75, 94, 94, 82, 95, 76, 75, 70, 45, 69, 63, 51, 63, 36, 36, 56, 42, 44, 36, 21, 14, 6, 0, 0, 0, 0, 0, 0, 0, 0, 0, 0, 0, 0, 0, 0, 0, 0, 0, 0, 0, 0, 0, 0, 0, 0, 0, 0, 0, 0, 0, 0, 0, 0, 0, 0, 0, 0, 0, 0, 0, 0, 0, 0, 0, 0, 0, 0, 0, 0, 0, 0, 0, 0, 0, 0, 0, 0, 0, 0, 0, 0
0, 0, 55, 1, 0, 2, 6, 14, 16, 27, 40, 31, 38, 57, 76, 77, 82, 75, 99, 98, 99, 118, 95, 105, 117, 112, 95, 88, 99, 89, 98, 96, 94, 83, 86, 95, 74, 66, 54, 49, 42, 31, 26, 30, 23, 8, 0, 0, 0, 0, 0, 0, 0, 0, 0, 0, 0, 0, 0, 0, 0, 0, 0, 0, 0, 0, 0, 0, 0, 0, 0, 0, 0, 0, 0, 0, 0, 0, 0, 0, 0, 0, 0, 0, 0, 0, 0, 0, 0, 0, 0, 0, 0, 0, 0, 0, 0, 0, 0, 0, 0, 0, 0, 0, 0, 0
0, 0, 56, 3, 2, 4, 8, 12, 20, 32, 50, 53, 61, 66, 90, 121, 103, 114, 141, 156, 133, 133, 149, 143, 147, 144, 129, 126, 115, 111, 120, 99, 126, 100, 113, 85, 92, 86, 77, 52, 51, 57, 43, 35, 28, 9, 0, 0, 0, 0, 0, 0, 0, 0, 0, 0, 0, 0, 0, 0, 0, 0, 0, 0, 0, 0, 0, 0, 0, 0, 0, 0, 0, 0, 0, 0, 0, 0, 0, 0, 0, 0, 0, 0, 0, 0, 0, 0, 0, 0, 0, 0, 0, 0, 0, 0, 0, 0, 0, 0, 0, 0, 0, 0, 0, 0
0, 0, 57, 0, 2, 6, 14, 18, 27, 46, 77, 76, 89, 108, 111, 159, 149, 138, 162, 178, 173, 198, 167, 154, 174, 182, 172, 161, 176, 146, 189, 182, 138, 139, 130, 105, 113, 93, 86, 87, 70, 64, 54, 28, 31, 20, 2, 0, 0, 0, 0, 0, 0, 0, 0, 0, 0, 0, 0, 0, 0, 0, 0, 0, 0, 0, 0, 0, 0, 0, 0, 0, 0, 0, 0, 0, 0, 0, 0, 0, 0, 0, 0, 0, 0, 0, 0, 0, 0, 0, 0, 0, 0, 0, 0, 0, 0, 0, 0, 0, 0, 0, 0, 0, 0, 0
0, 0, 58, 0, 4, 4, 11, 22, 42, 55, 104, 97, 106, 138, 174, 203, 209, 188, 206, 239, 230, 232, 236, 200, 238, 181, 204, 201, 171, 194, 195, 179, 196, 146, 141, 132, 115, 115, 121, 98, 81, 77, 57, 47, 30, 19, 1, 0, 0, 0, 0, 0, 0, 0, 0, 0, 0, 0, 0, 0, 0, 0, 0, 0, 0, 0, 0, 0, 0, 0, 0, 0, 0, 0, 0, 0, 0, 0, 0, 0, 0, 0, 0, 0, 0, 0, 0, 0, 0, 0, 0, 0, 0, 0, 0, 0, 0, 0, 0, 0, 0, 0, 0, 0, 0, 0
0, 0, 59, 1, 4, 7, 10, 25, 41, 50, 113, 87, 113, 151, 175, 194, 219, 221, 221, 216, 240, 274, 223, 279, 299, 203, 225, 233, 217, 234, 220, 202, 204, 146, 160, 174, 167, 123, 108, 94, 94, 88, 69, 44, 48, 11, 2, 0, 0, 0, 0, 0, 0, 0, 0, 0, 0, 0, 0, 0, 0, 0, 0, 0, 0, 0, 0, 0, 0, 0, 0, 0, 0, 0, 0, 0, 0, 0, 0, 0, 0, 0, 0, 0, 0, 0, 0, 0, 0, 0, 0, 0, 0, 0, 0, 0, 0, 0, 0, 0, 0, 0, 0, 0, 0, 0
0, 0, 60, 0, 3, 10, 15, 32, 37, 65, 106, 76, 119, 154, 202, 214, 204, 192, 206, 229, 227, 250, 252, 234, 245, 229, 225, 250, 197, 222, 185, 175, 193, 173, 169, 127, 138, 140, 116, 114, 92, 74, 61, 52, 35, 20, 1, 0, 0, 0, 0, 0, 0, 0, 0, 0, 0, 0, 0, 0, 0, 0, 0, 0, 0, 0, 0, 0, 0, 0, 0, 0, 0, 0, 0, 0, 0, 0, 0, 0, 0, 0, 0, 0, 0, 0, 0, 0, 0, 0, 0, 0, 0, 0, 0, 0, 0, 0, 0, 0, 0, 0, 0, 0, 0, 0
0, 0, 61, 1, 3, 15, 12, 24, 38, 66, 113, 93, 119, 155, 180, 231, 188, 223, 194, 237, 244, 270, 238, 268, 257, 226, 255, 221, 237, 183, 209, 190, 193, 184, 146, 142, 118, 138, 119, 122, 92, 58, 69, 63, 35, 18, 1, 0, 0, 0, 0, 0, 0, 0, 0, 0, 0, 0, 0, 0, 0, 0, 0, 0, 0, 0, 0, 0, 0, 0, 0, 0, 0, 0, 0, 0, 0, 0, 0, 0, 0, 0, 0, 0, 0, 0, 0, 0, 0, 0, 0, 0, 0, 0, 0, 0, 0, 0, 0, 0, 0, 0, 0, 0, 0, 0
0, 0, 62, 0, 0, 13, 13, 28, 39, 67, 124, 86, 126, 117, 176, 207, 190, 213, 249, 267, 262, 241, 260, 240, 230, 260, 236, 237, 204, 211, 197, 177, 151, 158, 151, 143, 138, 119, 113, 82, 81, 83, 69, 44, 31, 20, 1, 0, 0, 0, 0, 0, 0, 0, 0, 0, 0, 0, 0, 0, 0, 0, 0, 0, 0, 0, 0, 0, 0, 0, 0, 0, 0, 0, 0, 0, 0, 0, 0, 0, 0, 0, 0, 0, 0, 0, 0, 0, 0, 0, 0, 0, 0, 0, 0, 0, 0, 0, 0, 0, 0, 0, 0, 0, 0, 0
0, 0, 63, 0, 2, 11, 13, 28, 37, 50, 114, 102, 103, 164, 164, 196, 216, 219, 217, 247, 270, 240, 235, 265, 218, 241, 229, 205, 222, 199, 212, 172, 173, 168, 137, 124, 124, 113, 122, 105, 100, 75, 59, 57, 40, 15, 0, 0, 0, 0, 0, 0, 0, 0, 0, 0, 0, 0, 0, 0, 0, 0, 0, 0, 0, 0, 0, 0, 0, 0, 0, 0, 0, 0, 0, 0, 0, 0, 0, 0, 0, 0, 0, 0, 0, 0, 0, 0, 0, 0, 0, 0, 0, 0, 0, 0, 0, 0, 0, 0, 0, 0, 0, 0, 0, 0
0, 0, 64, 0, 8, 6, 15, 22, 40, 67, 109, 99, 117, 151, 187, 188, 188, 213, 199, 233, 263, 244, 224, 233, 241, 235, 210, 239, 204, 185, 190, 197, 177, 187, 144, 158, 135, 140, 119, 89, 97, 91, 62, 69, 41, 19, 4, 0, 0, 0, 0, 0, 0, 0, 0, 0, 0, 0, 0, 0, 0, 0, 0, 0, 0, 0, 0, 0, 0, 0, 0, 0, 0, 0, 0, 0, 0, 0, 0, 0, 0, 0, 0, 0, 0, 0, 0, 0, 0, 0, 0, 0, 0, 0, 0, 0, 0, 0, 0, 0, 0, 0, 0, 0, 0, 0
0, 0, 65, 4, 4, 8, 20, 24, 42, 52, 116, 101, 107, 154, 181, 186, 173, 225, 226, 238, 261, 273, 274, 258, 197, 284, 230, 226, 259, 215, 183, 185, 154, 172, 183, 147, 139, 111, 99, 97, 82, 68, 72, 62, 41, 24, 1, 0, 0, 0, 0, 0, 0, 0, 0, 0, 0, 0, 0, 0, 0, 0, 0, 0, 0, 0, 0, 0, 0, 0, 0, 0, 0, 0, 0, 0, 0, 0, 0, 0, 0, 0, 0, 0, 0, 0, 0, 0, 0, 0, 0, 0, 0, 0, 0, 0, 0, 0, 0, 0, 0, 0, 0, 0, 0, 0
0, 0, 66, 8, 3, 0, 22, 19, 44, 60, 124, 86, 123, 146, 181, 193, 206, 223, 243, 253, 251, 218, 229, 230, 246, 243, 226, 217, 232, 203, 195, 194, 181, 154, 162, 147, 146, 121, 122, 106, 97, 85, 67, 59, 37, 27, 1, 0, 0, 0, 0, 0, 0, 0, 0, 0, 0, 0, 0, 0, 0, 0, 0, 0, 0, 0, 0, 0, 0, 0, 0, 0, 0, 0, 0, 0, 0, 0, 0, 0, 0, 0, 0, 0, 0, 0, 0, 0, 0, 0, 0, 0, 0, 0, 0, 0, 0, 0, 0, 0, 0, 0, 0, 0, 0, 0
0, 0, 67, 4, 2, 8, 10, 20, 38, 66, 130, 97, 106, 154, 181, 199, 206, 225, 214, 228, 260, 256, 229, 238, 255, 231, 265, 199, 209, 213, 223, 188, 179, 163, 145, 112, 132, 138, 114, 90, 106, 92, 78, 50, 38, 25, 3, 0, 0, 0, 0, 0, 0, 0, 0, 0, 0, 0, 0, 0, 0, 0, 0, 0, 0, 0, 0, 0, 0, 0, 0, 0, 0, 0, 0, 0, 0, 0, 0, 0, 0, 0, 0, 0, 0, 0, 0, 0, 0, 0, 0, 0, 0, 0, 0, 0, 0, 0, 0, 0, 0, 0, 0, 0, 0, 0
0, 0, 68, 1, 4, 7, 11, 33, 42, 69, 96, 68, 113, 144, 150, 210, 203, 193, 222, 226, 247, 251, 236, 234, 233, 210, 232, 235, 193, 221, 216, 174, 186, 155, 169, 159, 154, 134, 95, 110, 74, 83, 61, 49, 43, 20, 2, 0, 0, 0, 0, 0, 0, 0, 0, 0, 0, 0, 0, 0, 0, 0, 0, 0, 0, 0, 0, 0, 0, 0, 0, 0, 0, 0, 0, 0, 0, 0, 0, 0, 0, 0, 0, 0, 0, 0, 0, 0, 0, 0, 0, 0, 0, 0, 0, 0, 0, 0, 0, 0, 0, 0, 0, 0, 0, 0
0, 0, 69, 3, 2, 5, 20, 24, 37, 55, 119, 88, 107, 145, 151, 209, 203, 219, 217, 236, 249, 246, 234, 268, 299, 244, 251, 237, 219, 191, 179, 197, 169, 154, 159, 152, 144, 124, 109, 114, 89, 79, 66, 59, 38, 27, 3, 0, 0, 0, 0, 0, 0, 0, 0, 0, 0, 0, 0, 0, 0, 0, 0, 0, 0, 0, 0, 0, 0, 0, 0, 0, 0, 0, 0, 0, 0, 0, 0, 0, 0, 0, 0, 0, 0, 0, 0, 0, 0, 0, 0, 0, 0, 0, 0, 0, 0, 0, 0, 0, 0, 0, 0, 0, 0, 0
0, 0, 70, 3, 3, 13, 15, 27, 40, 52, 114, 92, 120, 138, 160, 210, 209, 210, 216, 224, 267, 258, 245, 230, 228, 227, 185, 232, 246, 226, 195, 200, 178, 169, 172, 135, 135, 127, 119, 95, 78, 72, 69, 46, 41, 25, 0, 0, 0, 0, 0, 0, 0, 0, 0, 0, 0, 0, 0, 0, 0, 0, 0, 0, 0, 0, 0, 0, 0, 0, 0, 0, 0, 0, 0, 0, 0, 0, 0, 0, 0, 0, 0, 0, 0, 0, 0, 0, 0, 0, 0, 0, 0, 0, 0, 0, 0, 0, 0, 0, 0, 0, 0, 0, 0, 0
0, 0, 71, 2, 4, 6, 18, 24, 33, 49, 112, 93, 120, 153, 143, 190, 185, 210, 187, 235, 242, 249, 229, 235, 263, 268, 246, 241, 217, 216, 196, 202, 177, 173, 158, 130, 151, 125, 114, 100, 92, 77, 69, 53, 46, 19, 3, 0, 0, 0, 0, 0, 0, 0, 0, 0, 0, 0, 0, 0, 0, 0, 0, 0, 0, 0, 0, 0, 0, 0, 0, 0, 0, 0, 0, 0, 0, 0, 0, 0, 0, 0, 0, 0, 0, 0, 0, 0, 0, 0, 0, 0, 0, 0, 0, 0, 0, 0, 0, 0, 0, 0, 0, 0, 0, 0
0, 0, 72, 4, 3, 5, 12, 29, 32, 57, 125, 93, 96, 140, 159, 182, 181, 236, 205, 220, 241, 264, 238, 254, 239, 254, 216, 237, 214, 197, 200, 176, 172, 180, 164, 146, 140, 131, 114, 91, 115, 82, 69, 48, 37, 18, 1, 0, 0, 0, 0, 0, 0, 0, 0, 0, 0, 0, 0, 0, 0, 0, 0, 0, 0, 0, 0, 0, 0, 0, 0, 0, 0, 0, 0, 0, 0, 0, 0, 0, 0, 0, 0, 0, 0, 0, 0, 0, 0, 0, 0, 0, 0, 0, 0, 0, 0, 0, 0, 0, 0, 0, 0, 0, 0, 0
0, 0, 73, 5, 4, 8, 18, 17, 32, 52, 102, 93, 103, 133, 174, 197, 197, 207, 226, 270, 220, 250, 234, 260, 259, 272, 271, 223, 207, 230, 220, 188, 180, 148, 148, 147, 188, 131, 113, 103, 82, 87, 73, 55, 38, 18, 2, 0, 0, 0, 0, 0, 0, 0, 0, 0, 0, 0, 0, 0, 0, 0, 0, 0, 0, 0, 0, 0, 0, 0, 0, 0, 0, 0, 0, 0, 0, 0, 0, 0, 0, 0, 0, 0, 0, 0, 0, 0, 0, 0, 0, 0, 0, 0, 0, 0, 0, 0, 0, 0, 0, 0, 0, 0, 0, 0
0, 0, 74, 2, 4, 5, 18, 33, 30, 69, 120, 111, 125, 162, 172, 199, 206, 216, 238, 204, 242, 260, 291, 310, 248, 254, 241, 216, 189, 190, 184, 179, 169, 169, 187, 152, 134, 132, 119, 101, 101, 89, 89, 60, 54, 22, 0, 0, 0, 0, 0, 0, 0, 0, 0, 0, 0, 0, 0, 0, 0, 0, 0, 0, 0, 0, 0, 0, 0, 0, 0, 0, 0, 0, 0, 0, 0, 0, 0, 0, 0, 0, 0, 0, 0, 0, 0, 0, 0, 0, 0, 0, 0, 0, 0, 0, 0, 0, 0, 0, 0, 0, 0, 0, 0, 0
0, 0, 75, 0, 3, 5, 10, 21, 38, 48, 105, 92, 109, 135, 180, 171, 184, 181, 204, 241, 272, 264, 243, 260, 262, 243, 262, 235, 208, 190, 225, 192, 193, 165, 143, 140, 131, 144, 112, 85, 111, 78, 85, 43, 39, 29, 2, 0, 0, 0, 0, 0, 0, 0, 0, 0, 0, 0, 0, 0, 0, 0, 0, 0, 0, 0, 0, 0, 0, 0, 0, 0, 0, 0, 0, 0, 0, 0, 0, 0, 0, 0, 0, 0, 0, 0, 0, 0, 0, 0, 0, 0, 0, 0, 0, 0, 0, 0, 0, 0, 0, 0, 0, 0, 0, 0
0, 0, 76, 1, 2, 12, 13, 30, 37, 53, 115, 84, 117, 159, 162, 205, 214, 192, 231, 213, 226, 266, 242, 289, 225, 231, 252, 239, 212, 187, 186, 190, 158, 148, 157, 171, 148, 157, 120, 109, 97, 77, 56, 53, 44, 25, 0, 0, 0, 0, 0, 0, 0, 0, 0, 0, 0, 0, 0, 0, 0, 0, 0, 0, 0, 0, 0, 0, 0, 0, 0, 0, 0, 0, 0, 0, 0, 0, 0, 0, 0, 0, 0, 0, 0, 0, 0, 0, 0, 0, 0, 0, 0, 0, 0, 0, 0, 0, 0, 0, 0, 0, 0, 0, 0, 0
0, 0, 77, 3, 6, 2, 16, 38, 36, 60, 100, 80, 99, 132, 168, 175, 189, 230, 213, 244, 230, 257, 248, 236, 250, 245, 241, 247, 199, 206, 191, 217, 176, 162, 175, 152, 143, 125, 115, 94, 76, 71, 71, 54, 41, 14, 1, 0, 0, 0, 0, 0, 0, 0, 0, 0, 0, 0, 0, 0, 0, 0, 0, 0, 0, 0, 0, 0, 0, 0, 0, 0, 0, 0, 0, 0, 0, 0, 0, 0, 0, 0, 0, 0, 0, 0, 0, 0, 0, 0, 0, 0, 0, 0, 0, 0, 0, 0, 0, 0, 0, 0, 0, 0, 0, 0
