# TOPAS Version: 3.1.p3
# Parameter File: REDLEN_small_phantom_mc_basic_2cm.txt
# Results for scorer PhantomDose
# Scored on surface: CdTeCrystal1/YPlusSurface
# X in 100 bins of 0.03332 cm
# Y in 1 bin  of 0.4 cm
# Z in 100 bins of 0.0375 cm
# SurfaceTrackCount : Sum   
# Binned by incident track energy in 100 bins of 0.00104 MeV from 0.016 MeV to 0.12 MeV
# First bin is underflow, next to last bin is overflow, last bin is for case of no incident track.
0, 0, 0, 0, 0, 0, 1, 0, 0, 0, 1, 0, 0, 0, 1, 3, 5, 1, 3, 1, 2, 0, 2, 3, 1, 4, 0, 0, 2, 2, 5, 2, 2, 1, 0, 3, 4, 3, 2, 2, 0, 0, 0, 0, 0, 1, 0, 0, 0, 0, 0, 0, 0, 0, 0, 0, 0, 0, 0, 0, 0, 0, 0, 0, 0, 0, 0, 0, 0, 0, 0, 0, 0, 0, 0, 0, 0, 0, 0, 0, 0, 0, 0, 0, 0, 0, 0, 0, 0, 0, 0, 0, 0, 0, 0, 0, 0, 0, 0, 0, 0, 0, 0, 0, 0, 0
0, 0, 1, 0, 0, 0, 0, 0, 0, 0, 0, 1, 0, 2, 0, 1, 4, 0, 6, 1, 4, 3, 4, 2, 0, 5, 2, 2, 5, 3, 0, 0, 1, 3, 0, 2, 0, 0, 0, 0, 1, 0, 0, 1, 0, 0, 0, 0, 0, 0, 0, 0, 0, 0, 0, 0, 0, 0, 0, 0, 0, 0, 0, 0, 0, 0, 0, 0, 0, 0, 0, 0, 0, 0, 0, 0, 0, 0, 0, 0, 0, 0, 0, 0, 0, 0, 0, 0, 0, 0, 0, 0, 0, 0, 0, 0, 0, 0, 0, 0, 0, 0, 0, 0, 0, 0
0, 0, 2, 0, 0, 0, 0, 1, 0, 0, 1, 1, 1, 1, 3, 0, 4, 0, 3, 3, 5, 3, 3, 4, 1, 1, 0, 6, 1, 3, 1, 1, 0, 1, 1, 0, 1, 2, 2, 1, 3, 1, 1, 0, 1, 0, 0, 0, 0, 0, 0, 0, 0, 0, 0, 0, 0, 0, 0, 0, 0, 0, 0, 0, 0, 0, 0, 0, 0, 0, 0, 0, 0, 0, 0, 0, 0, 0, 0, 0, 0, 0, 0, 0, 0, 0, 0, 0, 0, 0, 0, 0, 0, 0, 0, 0, 0, 0, 0, 0, 0, 0, 0, 0, 0, 0
0, 0, 3, 0, 0, 0, 0, 0, 0, 1, 1, 1, 0, 2, 1, 3, 0, 2, 0, 0, 1, 4, 2, 4, 2, 5, 2, 3, 1, 5, 4, 4, 0, 1, 1, 1, 0, 0, 2, 1, 2, 0, 0, 0, 0, 0, 0, 0, 0, 0, 0, 0, 0, 0, 0, 0, 0, 0, 0, 0, 0, 0, 0, 0, 0, 0, 0, 0, 0, 0, 0, 0, 0, 0, 0, 0, 0, 0, 0, 0, 0, 0, 0, 0, 0, 0, 0, 0, 0, 0, 0, 0, 0, 0, 0, 0, 0, 0, 0, 0, 0, 0, 0, 0, 0, 0
0, 0, 4, 0, 2, 0, 0, 0, 0, 1, 2, 1, 0, 2, 0, 1, 0, 2, 1, 0, 0, 1, 10, 3, 4, 2, 1, 2, 1, 1, 1, 4, 0, 2, 1, 2, 2, 2, 1, 1, 2, 0, 0, 1, 1, 0, 0, 0, 0, 0, 0, 0, 0, 0, 0, 0, 0, 0, 0, 0, 0, 0, 0, 0, 0, 0, 0, 0, 0, 0, 0, 0, 0, 0, 0, 0, 0, 0, 0, 0, 0, 0, 0, 0, 0, 0, 0, 0, 0, 0, 0, 0, 0, 0, 0, 0, 0, 0, 0, 0, 0, 0, 0, 0, 0, 0
0, 0, 5, 1, 0, 3, 10, 9, 15, 31, 43, 40, 53, 59, 65, 86, 88, 94, 81, 104, 107, 102, 102, 121, 110, 114, 93, 104, 89, 76, 101, 85, 79, 71, 76, 62, 60, 62, 52, 43, 40, 41, 24, 21, 9, 9, 0, 0, 0, 0, 0, 0, 0, 0, 0, 0, 0, 0, 0, 0, 0, 0, 0, 0, 0, 0, 0, 0, 0, 0, 0, 0, 0, 0, 0, 0, 0, 0, 0, 0, 0, 0, 0, 0, 0, 0, 0, 0, 0, 0, 0, 0, 0, 0, 0, 0, 0, 0, 0, 0, 0, 0, 0, 0, 0, 0
0, 0, 6, 3, 4, 10, 19, 25, 31, 62, 114, 92, 122, 136, 178, 205, 216, 214, 206, 238, 224, 264, 276, 226, 236, 217, 233, 242, 194, 199, 162, 192, 171, 133, 148, 167, 148, 139, 120, 81, 89, 90, 87, 55, 34, 29, 2, 0, 0, 0, 0, 0, 0, 0, 0, 0, 0, 0, 0, 0, 0, 0, 0, 0, 0, 0, 0, 0, 0, 0, 0, 0, 0, 0, 0, 0, 0, 0, 0, 0, 0, 0, 0, 0, 0, 0, 0, 0, 0, 0, 0, 0, 0, 0, 0, 0, 0, 0, 0, 0, 0, 0, 0, 0, 0, 0
0, 0, 7, 1, 7, 4, 7, 24, 41, 49, 114, 75, 106, 154, 166, 208, 203, 206, 214, 246, 241, 243, 257, 230, 251, 244, 220, 233, 210, 193, 197, 219, 181, 169, 146, 157, 145, 139, 112, 104, 78, 91, 74, 62, 32, 26, 1, 0, 0, 0, 0, 0, 0, 0, 0, 0, 0, 0, 0, 0, 0, 0, 0, 0, 0, 0, 0, 0, 0, 0, 0, 0, 0, 0, 0, 0, 0, 0, 0, 0, 0, 0, 0, 0, 0, 0, 0, 0, 0, 0, 0, 0, 0, 0, 0, 0, 0, 0, 0, 0, 0, 0, 0, 0, 0, 0
0, 0, 8, 3, 1, 7, 13, 19, 46, 58, 107, 105, 127, 133, 160, 172, 197, 194, 216, 246, 228, 243, 297, 246, 246, 237, 221, 208, 234, 189, 196, 197, 182, 160, 189, 154, 150, 115, 116, 100, 83, 88, 65, 51, 43, 24, 3, 0, 0, 0, 0, 0, 0, 0, 0, 0, 0, 0, 0, 0, 0, 0, 0, 0, 0, 0, 0, 0, 0, 0, 0, 0, 0, 0, 0, 0, 0, 0, 0, 0, 0, 0, 0, 0, 0, 0, 0, 0, 0, 0, 0, 0, 0, 0, 0, 0, 0, 0, 0, 0, 0, 0, 0, 0, 0, 0
0, 0, 9, 0, 3, 6, 7, 29, 41, 59, 116, 89, 119, 142, 167, 168, 222, 208, 227, 224, 261, 254, 253, 245, 240, 206, 231, 224, 210, 213, 202, 180, 166, 188, 151, 160, 106, 135, 89, 96, 91, 65, 60, 46, 27, 19, 2, 0, 0, 0, 0, 0, 0, 0, 0, 0, 0, 0, 0, 0, 0, 0, 0, 0, 0, 0, 0, 0, 0, 0, 0, 0, 0, 0, 0, 0, 0, 0, 0, 0, 0, 0, 0, 0, 0, 0, 0, 0, 0, 0, 0, 0, 0, 0, 0, 0, 0, 0, 0, 0, 0, 0, 0, 0, 0, 0
0, 0, 10, 1, 3, 11, 17, 22, 45, 62, 122, 102, 105, 128, 177, 185, 205, 218, 225, 240, 214, 244, 245, 237, 227, 235, 217, 210, 260, 187, 207, 193, 183, 193, 165, 166, 130, 140, 114, 96, 90, 80, 57, 57, 31, 23, 1, 0, 0, 0, 0, 0, 0, 0, 0, 0, 0, 0, 0, 0, 0, 0, 0, 0, 0, 0, 0, 0, 0, 0, 0, 0, 0, 0, 0, 0, 0, 0, 0, 0, 0, 0, 0, 0, 0, 0, 0, 0, 0, 0, 0, 0, 0, 0, 0, 0, 0, 0, 0, 0, 0, 0, 0, 0, 0, 0
0, 0, 11, 4, 1, 7, 14, 20, 34, 51, 123, 91, 105, 148, 161, 192, 204, 183, 198, 258, 235, 230, 231, 233, 253, 245, 219, 207, 220, 184, 203, 190, 190, 151, 156, 136, 119, 117, 127, 117, 84, 75, 71, 51, 50, 20, 2, 0, 0, 0, 0, 0, 0, 0, 0, 0, 0, 0, 0, 0, 0, 0, 0, 0, 0, 0, 0, 0, 0, 0, 0, 0, 0, 0, 0, 0, 0, 0, 0, 0, 0, 0, 0, 0, 0, 0, 0, 0, 0, 0, 0, 0, 0, 0, 0, 0, 0, 0, 0, 0, 0, 0, 0, 0, 0, 0
0, 0, 12, 2, 1, 6, 9, 26, 49, 38, 96, 91, 135, 158, 180, 204, 216, 218, 238, 282, 239, 249, 265, 227, 300, 235, 233, 214, 207, 204, 231, 189, 156, 171, 164, 147, 147, 150, 106, 100, 88, 89, 66, 56, 42, 19, 1, 0, 0, 0, 0, 0, 0, 0, 0, 0, 0, 0, 0, 0, 0, 0, 0, 0, 0, 0, 0, 0, 0, 0, 0, 0, 0, 0, 0, 0, 0, 0, 0, 0, 0, 0, 0, 0, 0, 0, 0, 0, 0, 0, 0, 0, 0, 0, 0, 0, 0, 0, 0, 0, 0, 0, 0, 0, 0, 0
0, 0, 13, 1, 5, 9, 15, 22, 44, 62, 113, 92, 120, 149, 170, 219, 206, 219, 207, 217, 235, 277, 254, 212, 233, 239, 206, 243, 212, 202, 220, 187, 164, 179, 164, 136, 135, 132, 114, 108, 81, 86, 63, 59, 48, 18, 2, 0, 0, 0, 0, 0, 0, 0, 0, 0, 0, 0, 0, 0, 0, 0, 0, 0, 0, 0, 0, 0, 0, 0, 0, 0, 0, 0, 0, 0, 0, 0, 0, 0, 0, 0, 0, 0, 0, 0, 0, 0, 0, 0, 0, 0, 0, 0, 0, 0, 0, 0, 0, 0, 0, 0, 0, 0, 0, 0
0, 0, 14, 2, 6, 12, 13, 15, 44, 61, 114, 100, 144, 145, 184, 221, 209, 195, 232, 242, 236, 253, 272, 249, 256, 232, 245, 221, 226, 225, 201, 188, 165, 181, 162, 149, 118, 123, 129, 116, 93, 84, 79, 59, 48, 26, 1, 0, 0, 0, 0, 0, 0, 0, 0, 0, 0, 0, 0, 0, 0, 0, 0, 0, 0, 0, 0, 0, 0, 0, 0, 0, 0, 0, 0, 0, 0, 0, 0, 0, 0, 0, 0, 0, 0, 0, 0, 0, 0, 0, 0, 0, 0, 0, 0, 0, 0, 0, 0, 0, 0, 0, 0, 0, 0, 0
0, 0, 15, 1, 2, 10, 17, 30, 39, 51, 107, 102, 123, 147, 174, 199, 189, 212, 250, 242, 258, 236, 255, 273, 242, 249, 249, 226, 190, 201, 184, 185, 186, 179, 162, 178, 134, 134, 132, 97, 72, 85, 70, 61, 45, 19, 2, 0, 0, 0, 0, 0, 0, 0, 0, 0, 0, 0, 0, 0, 0, 0, 0, 0, 0, 0, 0, 0, 0, 0, 0, 0, 0, 0, 0, 0, 0, 0, 0, 0, 0, 0, 0, 0, 0, 0, 0, 0, 0, 0, 0, 0, 0, 0, 0, 0, 0, 0, 0, 0, 0, 0, 0, 0, 0, 0
0, 0, 16, 2, 4, 14, 17, 23, 41, 57, 119, 88, 103, 155, 158, 174, 229, 226, 213, 250, 258, 247, 271, 244, 241, 260, 220, 197, 217, 205, 190, 184, 163, 164, 149, 142, 135, 124, 120, 113, 112, 57, 63, 57, 48, 17, 0, 0, 0, 0, 0, 0, 0, 0, 0, 0, 0, 0, 0, 0, 0, 0, 0, 0, 0, 0, 0, 0, 0, 0, 0, 0, 0, 0, 0, 0, 0, 0, 0, 0, 0, 0, 0, 0, 0, 0, 0, 0, 0, 0, 0, 0, 0, 0, 0, 0, 0, 0, 0, 0, 0, 0, 0, 0, 0, 0
0, 0, 17, 4, 5, 5, 16, 23, 28, 45, 110, 106, 100, 158, 182, 204, 211, 216, 234, 246, 244, 258, 251, 251, 267, 230, 210, 224, 206, 213, 192, 199, 178, 189, 160, 142, 117, 125, 117, 105, 89, 86, 67, 74, 39, 23, 5, 0, 0, 0, 0, 0, 0, 0, 0, 0, 0, 0, 0, 0, 0, 0, 0, 0, 0, 0, 0, 0, 0, 0, 0, 0, 0, 0, 0, 0, 0, 0, 0, 0, 0, 0, 0, 0, 0, 0, 0, 0, 0, 0, 0, 0, 0, 0, 0, 0, 0, 0, 0, 0, 0, 0, 0, 0, 0, 0
0, 0, 18, 2, 4, 10, 15, 29, 35, 67, 114, 96, 129, 142, 173, 197, 221, 197, 251, 241, 262, 262, 287, 280, 237, 215, 231, 209, 218, 207, 178, 205, 195, 171, 153, 136, 142, 123, 114, 120, 97, 78, 55, 67, 34, 20, 0, 0, 0, 0, 0, 0, 0, 0, 0, 0, 0, 0, 0, 0, 0, 0, 0, 0, 0, 0, 0, 0, 0, 0, 0, 0, 0, 0, 0, 0, 0, 0, 0, 0, 0, 0, 0, 0, 0, 0, 0, 0, 0, 0, 0, 0, 0, 0, 0, 0, 0, 0, 0, 0, 0, 0, 0, 0, 0, 0
0, 0, 19, 1, 4, 9, 14, 23, 33, 54, 99, 82, 114, 170, 151, 215, 221, 212, 227, 249, 264, 249, 261, 264, 254, 215, 238, 227, 219, 189, 207, 183, 168, 169, 173, 145, 126, 104, 122, 108, 83, 89, 69, 59, 45, 23, 0, 0, 0, 0, 0, 0, 0, 0, 0, 0, 0, 0, 0, 0, 0, 0, 0, 0, 0, 0, 0, 0, 0, 0, 0, 0, 0, 0, 0, 0, 0, 0, 0, 0, 0, 0, 0, 0, 0, 0, 0, 0, 0, 0, 0, 0, 0, 0, 0, 0, 0, 0, 0, 0, 0, 0, 0, 0, 0, 0
0, 0, 20, 1, 4, 3, 14, 23, 48, 59, 114, 96, 99, 164, 145, 182, 206, 217, 258, 221, 239, 234, 265, 248, 264, 234, 285, 220, 216, 227, 193, 200, 189, 187, 151, 137, 168, 115, 114, 94, 96, 69, 62, 52, 41, 18, 2, 0, 0, 0, 0, 0, 0, 0, 0, 0, 0, 0, 0, 0, 0, 0, 0, 0, 0, 0, 0, 0, 0, 0, 0, 0, 0, 0, 0, 0, 0, 0, 0, 0, 0, 0, 0, 0, 0, 0, 0, 0, 0, 0, 0, 0, 0, 0, 0, 0, 0, 0, 0, 0, 0, 0, 0, 0, 0, 0
0, 0, 21, 5, 5, 8, 13, 30, 42, 56, 132, 85, 108, 119, 165, 188, 179, 218, 228, 256, 265, 229, 224, 233, 207, 264, 249, 234, 244, 235, 206, 178, 183, 165, 156, 146, 147, 129, 91, 95, 87, 87, 59, 60, 37, 30, 1, 0, 0, 0, 0, 0, 0, 0, 0, 0, 0, 0, 0, 0, 0, 0, 0, 0, 0, 0, 0, 0, 0, 0, 0, 0, 0, 0, 0, 0, 0, 0, 0, 0, 0, 0, 0, 0, 0, 0, 0, 0, 0, 0, 0, 0, 0, 0, 0, 0, 0, 0, 0, 0, 0, 0, 0, 0, 0, 0
0, 0, 22, 7, 7, 9, 23, 22, 39, 46, 126, 94, 105, 146, 176, 180, 220, 180, 212, 259, 262, 265, 280, 233, 261, 220, 231, 235, 217, 199, 180, 177, 182, 197, 148, 148, 136, 117, 103, 110, 84, 68, 68, 38, 38, 15, 0, 0, 0, 0, 0, 0, 0, 0, 0, 0, 0, 0, 0, 0, 0, 0, 0, 0, 0, 0, 0, 0, 0, 0, 0, 0, 0, 0, 0, 0, 0, 0, 0, 0, 0, 0, 0, 0, 0, 0, 0, 0, 0, 0, 0, 0, 0, 0, 0, 0, 0, 0, 0, 0, 0, 0, 0, 0, 0, 0
0, 0, 23, 0, 2, 3, 11, 23, 37, 63, 139, 84, 132, 144, 174, 209, 192, 206, 250, 250, 256, 257, 275, 252, 273, 236, 215, 212, 234, 203, 232, 184, 169, 171, 156, 155, 128, 127, 138, 100, 89, 62, 56, 45, 34, 21, 1, 0, 0, 0, 0, 0, 0, 0, 0, 0, 0, 0, 0, 0, 0, 0, 0, 0, 0, 0, 0, 0, 0, 0, 0, 0, 0, 0, 0, 0, 0, 0, 0, 0, 0, 0, 0, 0, 0, 0, 0, 0, 0, 0, 0, 0, 0, 0, 0, 0, 0, 0, 0, 0, 0, 0, 0, 0, 0, 0
0, 0, 24, 2, 3, 11, 20, 27, 28, 59, 130, 107, 119, 160, 184, 214, 195, 263, 211, 256, 266, 261, 253, 226, 266, 238, 236, 238, 225, 199, 212, 177, 155, 189, 165, 143, 128, 127, 103, 124, 89, 71, 80, 65, 36, 25, 0, 0, 0, 0, 0, 0, 0, 0, 0, 0, 0, 0, 0, 0, 0, 0, 0, 0, 0, 0, 0, 0, 0, 0, 0, 0, 0, 0, 0, 0, 0, 0, 0, 0, 0, 0, 0, 0, 0, 0, 0, 0, 0, 0, 0, 0, 0, 0, 0, 0, 0, 0, 0, 0, 0, 0, 0, 0, 0, 0
0, 0, 25, 4, 5, 16, 16, 18, 41, 47, 113, 89, 120, 137, 181, 196, 187, 209, 218, 252, 264, 248, 251, 258, 220, 221, 226, 215, 219, 224, 183, 178, 177, 165, 165, 118, 132, 124, 120, 96, 111, 79, 58, 52, 39, 20, 2, 0, 0, 0, 0, 0, 0, 0, 0, 0, 0, 0, 0, 0, 0, 0, 0, 0, 0, 0, 0, 0, 0, 0, 0, 0, 0, 0, 0, 0, 0, 0, 0, 0, 0, 0, 0, 0, 0, 0, 0, 0, 0, 0, 0, 0, 0, 0, 0, 0, 0, 0, 0, 0, 0, 0, 0, 0, 0, 0
0, 0, 26, 2, 1, 8, 24, 26, 44, 41, 131, 79, 133, 135, 168, 220, 195, 209, 221, 259, 276, 264, 261, 237, 262, 257, 239, 223, 213, 218, 211, 188, 164, 179, 143, 141, 137, 133, 117, 112, 91, 90, 57, 64, 44, 30, 2, 0, 0, 0, 0, 0, 0, 0, 0, 0, 0, 0, 0, 0, 0, 0, 0, 0, 0, 0, 0, 0, 0, 0, 0, 0, 0, 0, 0, 0, 0, 0, 0, 0, 0, 0, 0, 0, 0, 0, 0, 0, 0, 0, 0, 0, 0, 0, 0, 0, 0, 0, 0, 0, 0, 0, 0, 0, 0, 0
0, 0, 27, 3, 4, 3, 13, 23, 40, 54, 113, 76, 106, 151, 144, 189, 224, 200, 236, 244, 261, 232, 261, 280, 222, 230, 233, 233, 224, 189, 187, 203, 214, 183, 141, 142, 115, 120, 126, 94, 99, 74, 73, 49, 35, 19, 1, 0, 0, 0, 0, 0, 0, 0, 0, 0, 0, 0, 0, 0, 0, 0, 0, 0, 0, 0, 0, 0, 0, 0, 0, 0, 0, 0, 0, 0, 0, 0, 0, 0, 0, 0, 0, 0, 0, 0, 0, 0, 0, 0, 0, 0, 0, 0, 0, 0, 0, 0, 0, 0, 0, 0, 0, 0, 0, 0
0, 0, 28, 1, 6, 12, 8, 35, 46, 50, 124, 100, 123, 145, 157, 187, 206, 200, 223, 238, 242, 262, 245, 248, 272, 257, 206, 230, 221, 202, 185, 177, 229, 172, 189, 145, 122, 129, 105, 98, 105, 71, 66, 56, 23, 17, 0, 0, 0, 0, 0, 0, 0, 0, 0, 0, 0, 0, 0, 0, 0, 0, 0, 0, 0, 0, 0, 0, 0, 0, 0, 0, 0, 0, 0, 0, 0, 0, 0, 0, 0, 0, 0, 0, 0, 0, 0, 0, 0, 0, 0, 0, 0, 0, 0, 0, 0, 0, 0, 0, 0, 0, 0, 0, 0, 0
0, 0, 29, 3, 4, 3, 12, 36, 52, 53, 111, 93, 144, 138, 174, 203, 208, 219, 234, 238, 210, 258, 247, 231, 249, 249, 245, 240, 205, 179, 192, 196, 161, 166, 159, 150, 127, 90, 118, 95, 80, 62, 59, 53, 51, 20, 0, 0, 0, 0, 0, 0, 0, 0, 0, 0, 0, 0, 0, 0, 0, 0, 0, 0, 0, 0, 0, 0, 0, 0, 0, 0, 0, 0, 0, 0, 0, 0, 0, 0, 0, 0, 0, 0, 0, 0, 0, 0, 0, 0, 0, 0, 0, 0, 0, 0, 0, 0, 0, 0, 0, 0, 0, 0, 0, 0
0, 0, 30, 4, 3, 8, 13, 26, 32, 57, 108, 101, 121, 159, 169, 210, 185, 208, 196, 265, 259, 259, 236, 255, 252, 212, 270, 234, 193, 202, 181, 215, 160, 175, 145, 142, 127, 127, 100, 112, 79, 63, 74, 49, 47, 22, 2, 0, 0, 0, 0, 0, 0, 0, 0, 0, 0, 0, 0, 0, 0, 0, 0, 0, 0, 0, 0, 0, 0, 0, 0, 0, 0, 0, 0, 0, 0, 0, 0, 0, 0, 0, 0, 0, 0, 0, 0, 0, 0, 0, 0, 0, 0, 0, 0, 0, 0, 0, 0, 0, 0, 0, 0, 0, 0, 0
0, 0, 31, 2, 8, 11, 16, 23, 48, 61, 113, 87, 115, 150, 190, 184, 188, 197, 212, 281, 238, 252, 263, 257, 248, 229, 258, 210, 206, 208, 191, 197, 189, 187, 175, 144, 149, 143, 123, 90, 68, 80, 54, 51, 53, 19, 0, 0, 0, 0, 0, 0, 0, 0, 0, 0, 0, 0, 0, 0, 0, 0, 0, 0, 0, 0, 0, 0, 0, 0, 0, 0, 0, 0, 0, 0, 0, 0, 0, 0, 0, 0, 0, 0, 0, 0, 0, 0, 0, 0, 0, 0, 0, 0, 0, 0, 0, 0, 0, 0, 0, 0, 0, 0, 0, 0
0, 0, 32, 1, 3, 9, 15, 23, 34, 54, 120, 107, 108, 145, 168, 202, 191, 200, 229, 218, 244, 256, 207, 263, 241, 230, 237, 248, 192, 224, 202, 209, 173, 144, 146, 148, 133, 117, 110, 109, 88, 97, 67, 59, 51, 27, 2, 0, 0, 0, 0, 0, 0, 0, 0, 0, 0, 0, 0, 0, 0, 0, 0, 0, 0, 0, 0, 0, 0, 0, 0, 0, 0, 0, 0, 0, 0, 0, 0, 0, 0, 0, 0, 0, 0, 0, 0, 0, 0, 0, 0, 0, 0, 0, 0, 0, 0, 0, 0, 0, 0, 0, 0, 0, 0, 0
0, 0, 33, 4, 4, 6, 17, 27, 45, 56, 101, 84, 101, 154, 183, 199, 224, 190, 225, 209, 225, 254, 251, 245, 258, 228, 221, 235, 214, 245, 208, 205, 161, 154, 191, 153, 135, 122, 112, 124, 100, 90, 63, 51, 40, 19, 0, 0, 0, 0, 0, 0, 0, 0, 0, 0, 0, 0, 0, 0, 0, 0, 0, 0, 0, 0, 0, 0, 0, 0, 0, 0, 0, 0, 0, 0, 0, 0, 0, 0, 0, 0, 0, 0, 0, 0, 0, 0, 0, 0, 0, 0, 0, 0, 0, 0, 0, 0, 0, 0, 0, 0, 0, 0, 0, 0
0, 0, 34, 2, 6, 8, 13, 19, 46, 60, 120, 98, 87, 167, 161, 170, 192, 233, 224, 209, 252, 255, 248, 226, 236, 238, 228, 198, 232, 216, 203, 181, 174, 182, 133, 140, 127, 124, 119, 85, 90, 76, 66, 55, 39, 25, 2, 0, 0, 0, 0, 0, 0, 0, 0, 0, 0, 0, 0, 0, 0, 0, 0, 0, 0, 0, 0, 0, 0, 0, 0, 0, 0, 0, 0, 0, 0, 0, 0, 0, 0, 0, 0, 0, 0, 0, 0, 0, 0, 0, 0, 0, 0, 0, 0, 0, 0, 0, 0, 0, 0, 0, 0, 0, 0, 0
0, 0, 35, 1, 5, 9, 14, 21, 34, 65, 131, 82, 116, 152, 164, 193, 200, 191, 236, 242, 238, 248, 270, 249, 261, 228, 260, 216, 221, 209, 196, 219, 187, 185, 169, 138, 136, 129, 127, 104, 87, 52, 60, 53, 37, 17, 1, 0, 0, 0, 0, 0, 0, 0, 0, 0, 0, 0, 0, 0, 0, 0, 0, 0, 0, 0, 0, 0, 0, 0, 0, 0, 0, 0, 0, 0, 0, 0, 0, 0, 0, 0, 0, 0, 0, 0, 0, 0, 0, 0, 0, 0, 0, 0, 0, 0, 0, 0, 0, 0, 0, 0, 0, 0, 0, 0
0, 0, 36, 1, 9, 8, 12, 23, 43, 63, 128, 103, 121, 123, 166, 220, 202, 213, 216, 245, 243, 286, 253, 267, 246, 265, 239, 231, 210, 204, 231, 194, 174, 179, 176, 166, 127, 146, 121, 106, 93, 81, 64, 46, 42, 37, 1, 0, 0, 0, 0, 0, 0, 0, 0, 0, 0, 0, 0, 0, 0, 0, 0, 0, 0, 0, 0, 0, 0, 0, 0, 0, 0, 0, 0, 0, 0, 0, 0, 0, 0, 0, 0, 0, 0, 0, 0, 0, 0, 0, 0, 0, 0, 0, 0, 0, 0, 0, 0, 0, 0, 0, 0, 0, 0, 0
0, 0, 37, 3, 1, 5, 14, 19, 36, 55, 108, 95, 122, 131, 190, 182, 226, 187, 230, 238, 255, 250, 262, 246, 257, 247, 248, 225, 206, 211, 206, 181, 171, 152, 155, 152, 155, 134, 127, 98, 107, 83, 56, 69, 49, 17, 2, 0, 0, 0, 0, 0, 0, 0, 0, 0, 0, 0, 0, 0, 0, 0, 0, 0, 0, 0, 0, 0, 0, 0, 0, 0, 0, 0, 0, 0, 0, 0, 0, 0, 0, 0, 0, 0, 0, 0, 0, 0, 0, 0, 0, 0, 0, 0, 0, 0, 0, 0, 0, 0, 0, 0, 0, 0, 0, 0
0, 0, 38, 2, 4, 11, 12, 28, 41, 53, 123, 89, 120, 162, 163, 217, 208, 220, 230, 226, 263, 228, 221, 257, 256, 257, 240, 203, 222, 215, 205, 191, 169, 183, 170, 157, 141, 127, 140, 96, 105, 74, 72, 59, 32, 14, 2, 0, 0, 0, 0, 0, 0, 0, 0, 0, 0, 0, 0, 0, 0, 0, 0, 0, 0, 0, 0, 0, 0, 0, 0, 0, 0, 0, 0, 0, 0, 0, 0, 0, 0, 0, 0, 0, 0, 0, 0, 0, 0, 0, 0, 0, 0, 0, 0, 0, 0, 0, 0, 0, 0, 0, 0, 0, 0, 0
0, 0, 39, 2, 5, 9, 13, 29, 40, 52, 123, 86, 121, 126, 174, 196, 196, 178, 196, 245, 240, 237, 229, 248, 245, 255, 255, 228, 228, 212, 212, 186, 172, 186, 170, 138, 150, 130, 122, 104, 95, 57, 70, 54, 38, 23, 1, 0, 0, 0, 0, 0, 0, 0, 0, 0, 0, 0, 0, 0, 0, 0, 0, 0, 0, 0, 0, 0, 0, 0, 0, 0, 0, 0, 0, 0, 0, 0, 0, 0, 0, 0, 0, 0, 0, 0, 0, 0, 0, 0, 0, 0, 0, 0, 0, 0, 0, 0, 0, 0, 0, 0, 0, 0, 0, 0
0, 0, 40, 1, 2, 10, 14, 24, 46, 65, 111, 83, 102, 149, 183, 189, 246, 213, 251, 226, 228, 245, 242, 216, 242, 205, 249, 246, 235, 189, 188, 215, 191, 156, 163, 155, 136, 126, 106, 108, 83, 94, 75, 52, 47, 14, 1, 0, 0, 0, 0, 0, 0, 0, 0, 0, 0, 0, 0, 0, 0, 0, 0, 0, 0, 0, 0, 0, 0, 0, 0, 0, 0, 0, 0, 0, 0, 0, 0, 0, 0, 0, 0, 0, 0, 0, 0, 0, 0, 0, 0, 0, 0, 0, 0, 0, 0, 0, 0, 0, 0, 0, 0, 0, 0, 0
0, 0, 41, 3, 0, 9, 10, 14, 30, 52, 101, 102, 117, 122, 133, 168, 203, 209, 216, 266, 235, 264, 231, 246, 231, 231, 223, 218, 205, 190, 173, 184, 182, 175, 162, 130, 130, 126, 121, 87, 75, 84, 69, 55, 36, 18, 1, 0, 0, 0, 0, 0, 0, 0, 0, 0, 0, 0, 0, 0, 0, 0, 0, 0, 0, 0, 0, 0, 0, 0, 0, 0, 0, 0, 0, 0, 0, 0, 0, 0, 0, 0, 0, 0, 0, 0, 0, 0, 0, 0, 0, 0, 0, 0, 0, 0, 0, 0, 0, 0, 0, 0, 0, 0, 0, 0
0, 0, 42, 3, 3, 6, 18, 19, 29, 53, 77, 63, 82, 114, 115, 163, 141, 175, 204, 228, 204, 224, 189, 211, 199, 222, 196, 165, 178, 169, 149, 148, 157, 133, 147, 121, 113, 101, 93, 87, 94, 70, 51, 43, 33, 18, 1, 0, 0, 0, 0, 0, 0, 0, 0, 0, 0, 0, 0, 0, 0, 0, 0, 0, 0, 0, 0, 0, 0, 0, 0, 0, 0, 0, 0, 0, 0, 0, 0, 0, 0, 0, 0, 0, 0, 0, 0, 0, 0, 0, 0, 0, 0, 0, 0, 0, 0, 0, 0, 0, 0, 0, 0, 0, 0, 0
0, 0, 43, 2, 2, 5, 7, 12, 31, 31, 80, 43, 50, 113, 105, 108, 121, 120, 146, 186, 154, 177, 165, 163, 150, 154, 144, 173, 159, 154, 135, 155, 133, 111, 117, 98, 113, 90, 88, 83, 66, 47, 48, 46, 37, 18, 0, 0, 0, 0, 0, 0, 0, 0, 0, 0, 0, 0, 0, 0, 0, 0, 0, 0, 0, 0, 0, 0, 0, 0, 0, 0, 0, 0, 0, 0, 0, 0, 0, 0, 0, 0, 0, 0, 0, 0, 0, 0, 0, 0, 0, 0, 0, 0, 0, 0, 0, 0, 0, 0, 0, 0, 0, 0, 0, 0
0, 0, 44, 1, 1, 4, 2, 9, 18, 25, 50, 51, 45, 69, 85, 95, 102, 94, 129, 130, 165, 148, 145, 157, 121, 143, 125, 125, 127, 145, 107, 110, 124, 119, 107, 78, 102, 90, 79, 64, 59, 50, 48, 24, 32, 12, 0, 0, 0, 0, 0, 0, 0, 0, 0, 0, 0, 0, 0, 0, 0, 0, 0, 0, 0, 0, 0, 0, 0, 0, 0, 0, 0, 0, 0, 0, 0, 0, 0, 0, 0, 0, 0, 0, 0, 0, 0, 0, 0, 0, 0, 0, 0, 0, 0, 0, 0, 0, 0, 0, 0, 0, 0, 0, 0, 0
0, 0, 45, 0, 1, 1, 6, 2, 9, 17, 27, 37, 38, 50, 72, 78, 91, 100, 100, 106, 121, 109, 108, 129, 127, 110, 116, 117, 126, 91, 125, 93, 103, 85, 75, 97, 79, 60, 61, 55, 46, 36, 26, 40, 25, 14, 5, 0, 0, 0, 0, 0, 0, 0, 0, 0, 0, 0, 0, 0, 0, 0, 0, 0, 0, 0, 0, 0, 0, 0, 0, 0, 0, 0, 0, 0, 0, 0, 0, 0, 0, 0, 0, 0, 0, 0, 0, 0, 0, 0, 0, 0, 0, 0, 0, 0, 0, 0, 0, 0, 0, 0, 0, 0, 0, 0
0, 0, 46, 0, 1, 1, 4, 7, 14, 18, 31, 25, 34, 42, 53, 69, 67, 63, 75, 103, 93, 106, 111, 127, 90, 109, 113, 95, 117, 92, 79, 90, 88, 84, 66, 66, 80, 70, 50, 39, 52, 45, 32, 22, 23, 12, 2, 0, 0, 0, 0, 0, 0, 0, 0, 0, 0, 0, 0, 0, 0, 0, 0, 0, 0, 0, 0, 0, 0, 0, 0, 0, 0, 0, 0, 0, 0, 0, 0, 0, 0, 0, 0, 0, 0, 0, 0, 0, 0, 0, 0, 0, 0, 0, 0, 0, 0, 0, 0, 0, 0, 0, 0, 0, 0, 0
0, 0, 47, 1, 1, 1, 3, 1, 6, 7, 30, 13, 24, 27, 40, 52, 61, 51, 64, 62, 81, 74, 87, 103, 104, 91, 82, 91, 86, 102, 75, 93, 69, 87, 69, 77, 45, 56, 68, 52, 44, 40, 32, 25, 21, 10, 1, 0, 0, 0, 0, 0, 0, 0, 0, 0, 0, 0, 0, 0, 0, 0, 0, 0, 0, 0, 0, 0, 0, 0, 0, 0, 0, 0, 0, 0, 0, 0, 0, 0, 0, 0, 0, 0, 0, 0, 0, 0, 0, 0, 0, 0, 0, 0, 0, 0, 0, 0, 0, 0, 0, 0, 0, 0, 0, 0
0, 0, 48, 2, 0, 0, 1, 1, 2, 3, 23, 13, 28, 26, 43, 35, 62, 52, 63, 68, 80, 111, 53, 94, 85, 81, 84, 88, 90, 83, 81, 71, 78, 85, 71, 57, 68, 62, 59, 48, 37, 46, 31, 22, 18, 6, 0, 0, 0, 0, 0, 0, 0, 0, 0, 0, 0, 0, 0, 0, 0, 0, 0, 0, 0, 0, 0, 0, 0, 0, 0, 0, 0, 0, 0, 0, 0, 0, 0, 0, 0, 0, 0, 0, 0, 0, 0, 0, 0, 0, 0, 0, 0, 0, 0, 0, 0, 0, 0, 0, 0, 0, 0, 0, 0, 0
0, 0, 49, 1, 0, 0, 1, 1, 2, 4, 14, 11, 24, 19, 43, 40, 48, 61, 60, 74, 66, 88, 63, 78, 65, 67, 90, 83, 82, 81, 55, 79, 69, 64, 67, 72, 43, 55, 49, 38, 40, 43, 35, 25, 18, 6, 0, 0, 0, 0, 0, 0, 0, 0, 0, 0, 0, 0, 0, 0, 0, 0, 0, 0, 0, 0, 0, 0, 0, 0, 0, 0, 0, 0, 0, 0, 0, 0, 0, 0, 0, 0, 0, 0, 0, 0, 0, 0, 0, 0, 0, 0, 0, 0, 0, 0, 0, 0, 0, 0, 0, 0, 0, 0, 0, 0
0, 0, 50, 0, 0, 0, 1, 1, 3, 4, 24, 14, 25, 38, 32, 37, 39, 41, 64, 64, 62, 68, 68, 85, 95, 93, 84, 81, 76, 85, 85, 83, 91, 76, 68, 67, 75, 42, 46, 58, 40, 33, 25, 27, 18, 7, 0, 0, 0, 0, 0, 0, 0, 0, 0, 0, 0, 0, 0, 0, 0, 0, 0, 0, 0, 0, 0, 0, 0, 0, 0, 0, 0, 0, 0, 0, 0, 0, 0, 0, 0, 0, 0, 0, 0, 0, 0, 0, 0, 0, 0, 0, 0, 0, 0, 0, 0, 0, 0, 0, 0, 0, 0, 0, 0, 0
0, 0, 51, 0, 0, 0, 0, 4, 5, 5, 22, 12, 13, 22, 27, 45, 40, 58, 63, 76, 73, 81, 82, 88, 89, 82, 74, 81, 72, 79, 68, 84, 59, 58, 68, 53, 43, 43, 60, 39, 47, 28, 23, 31, 16, 13, 0, 0, 0, 0, 0, 0, 0, 0, 0, 0, 0, 0, 0, 0, 0, 0, 0, 0, 0, 0, 0, 0, 0, 0, 0, 0, 0, 0, 0, 0, 0, 0, 0, 0, 0, 0, 0, 0, 0, 0, 0, 0, 0, 0, 0, 0, 0, 0, 0, 0, 0, 0, 0, 0, 0, 0, 0, 0, 0, 0
0, 0, 52, 4, 3, 0, 1, 3, 4, 10, 31, 14, 22, 29, 47, 54, 79, 78, 84, 73, 83, 96, 111, 107, 97, 84, 77, 82, 78, 98, 82, 74, 85, 78, 76, 86, 59, 66, 39, 41, 40, 38, 37, 25, 21, 15, 0, 0, 0, 0, 0, 0, 0, 0, 0, 0, 0, 0, 0, 0, 0, 0, 0, 0, 0, 0, 0, 0, 0, 0, 0, 0, 0, 0, 0, 0, 0, 0, 0, 0, 0, 0, 0, 0, 0, 0, 0, 0, 0, 0, 0, 0, 0, 0, 0, 0, 0, 0, 0, 0, 0, 0, 0, 0, 0, 0
0, 0, 53, 0, 1, 2, 1, 1, 5, 15, 35, 15, 25, 45, 56, 69, 70, 85, 95, 92, 104, 99, 108, 130, 95, 91, 111, 118, 104, 91, 86, 85, 89, 102, 70, 65, 78, 81, 63, 58, 41, 46, 32, 24, 24, 3, 0, 0, 0, 0, 0, 0, 0, 0, 0, 0, 0, 0, 0, 0, 0, 0, 0, 0, 0, 0, 0, 0, 0, 0, 0, 0, 0, 0, 0, 0, 0, 0, 0, 0, 0, 0, 0, 0, 0, 0, 0, 0, 0, 0, 0, 0, 0, 0, 0, 0, 0, 0, 0, 0, 0, 0, 0, 0, 0, 0
0, 0, 54, 0, 0, 2, 4, 10, 8, 18, 39, 27, 38, 67, 64, 91, 91, 82, 105, 127, 98, 111, 99, 116, 116, 120, 133, 122, 106, 105, 130, 100, 101, 96, 93, 88, 65, 50, 66, 66, 46, 47, 47, 38, 15, 7, 1, 0, 0, 0, 0, 0, 0, 0, 0, 0, 0, 0, 0, 0, 0, 0, 0, 0, 0, 0, 0, 0, 0, 0, 0, 0, 0, 0, 0, 0, 0, 0, 0, 0, 0, 0, 0, 0, 0, 0, 0, 0, 0, 0, 0, 0, 0, 0, 0, 0, 0, 0, 0, 0, 0, 0, 0, 0, 0, 0
0, 0, 55, 0, 0, 4, 7, 15, 12, 20, 54, 40, 54, 77, 84, 92, 119, 114, 146, 127, 129, 153, 132, 121, 156, 148, 116, 138, 114, 146, 142, 138, 107, 101, 123, 81, 95, 83, 67, 75, 51, 41, 32, 25, 24, 13, 0, 0, 0, 0, 0, 0, 0, 0, 0, 0, 0, 0, 0, 0, 0, 0, 0, 0, 0, 0, 0, 0, 0, 0, 0, 0, 0, 0, 0, 0, 0, 0, 0, 0, 0, 0, 0, 0, 0, 0, 0, 0, 0, 0, 0, 0, 0, 0, 0, 0, 0, 0, 0, 0, 0, 0, 0, 0, 0, 0
0, 0, 56, 2, 5, 2, 9, 13, 31, 26, 46, 66, 80, 99, 110, 135, 130, 148, 164, 163, 174, 137, 176, 187, 177, 186, 154, 169, 180, 126, 128, 140, 121, 122, 117, 94, 103, 99, 84, 71, 59, 54, 58, 43, 35, 11, 1, 0, 0, 0, 0, 0, 0, 0, 0, 0, 0, 0, 0, 0, 0, 0, 0, 0, 0, 0, 0, 0, 0, 0, 0, 0, 0, 0, 0, 0, 0, 0, 0, 0, 0, 0, 0, 0, 0, 0, 0, 0, 0, 0, 0, 0, 0, 0, 0, 0, 0, 0, 0, 0, 0, 0, 0, 0, 0, 0
0, 0, 57, 0, 2, 2, 12, 16, 25, 37, 78, 84, 100, 86, 149, 150, 161, 152, 184, 198, 199, 195, 184, 221, 206, 174, 201, 227, 203, 179, 160, 162, 151, 137, 113, 132, 108, 152, 93, 76, 95, 76, 53, 49, 27, 23, 0, 0, 0, 0, 0, 0, 0, 0, 0, 0, 0, 0, 0, 0, 0, 0, 0, 0, 0, 0, 0, 0, 0, 0, 0, 0, 0, 0, 0, 0, 0, 0, 0, 0, 0, 0, 0, 0, 0, 0, 0, 0, 0, 0, 0, 0, 0, 0, 0, 0, 0, 0, 0, 0, 0, 0, 0, 0, 0, 0
0, 0, 58, 3, 3, 6, 5, 19, 35, 59, 108, 95, 101, 151, 158, 179, 182, 197, 211, 253, 228, 228, 258, 223, 220, 250, 221, 209, 203, 204, 182, 206, 176, 166, 172, 131, 129, 116, 104, 84, 72, 74, 62, 44, 35, 13, 0, 0, 0, 0, 0, 0, 0, 0, 0, 0, 0, 0, 0, 0, 0, 0, 0, 0, 0, 0, 0, 0, 0, 0, 0, 0, 0, 0, 0, 0, 0, 0, 0, 0, 0, 0, 0, 0, 0, 0, 0, 0, 0, 0, 0, 0, 0, 0, 0, 0, 0, 0, 0, 0, 0, 0, 0, 0, 0, 0
0, 0, 59, 6, 4, 7, 13, 26, 39, 81, 119, 107, 124, 148, 192, 198, 208, 195, 229, 222, 253, 262, 269, 250, 266, 211, 200, 238, 252, 189, 215, 192, 173, 171, 163, 143, 136, 126, 99, 96, 93, 77, 86, 38, 48, 18, 1, 0, 0, 0, 0, 0, 0, 0, 0, 0, 0, 0, 0, 0, 0, 0, 0, 0, 0, 0, 0, 0, 0, 0, 0, 0, 0, 0, 0, 0, 0, 0, 0, 0, 0, 0, 0, 0, 0, 0, 0, 0, 0, 0, 0, 0, 0, 0, 0, 0, 0, 0, 0, 0, 0, 0, 0, 0, 0, 0
0, 0, 60, 3, 4, 9, 12, 24, 54, 40, 129, 90, 116, 145, 180, 213, 180, 223, 229, 265, 252, 272, 232, 233, 215, 243, 241, 243, 216, 174, 195, 176, 170, 192, 156, 145, 135, 136, 100, 95, 96, 76, 67, 62, 37, 19, 0, 0, 0, 0, 0, 0, 0, 0, 0, 0, 0, 0, 0, 0, 0, 0, 0, 0, 0, 0, 0, 0, 0, 0, 0, 0, 0, 0, 0, 0, 0, 0, 0, 0, 0, 0, 0, 0, 0, 0, 0, 0, 0, 0, 0, 0, 0, 0, 0, 0, 0, 0, 0, 0, 0, 0, 0, 0, 0, 0
0, 0, 61, 2, 5, 6, 11, 28, 31, 58, 99, 105, 125, 151, 176, 228, 185, 182, 217, 246, 250, 261, 248, 261, 214, 266, 236, 214, 212, 207, 208, 182, 223, 141, 182, 147, 142, 115, 119, 101, 104, 76, 71, 71, 47, 21, 1, 0, 0, 0, 0, 0, 0, 0, 0, 0, 0, 0, 0, 0, 0, 0, 0, 0, 0, 0, 0, 0, 0, 0, 0, 0, 0, 0, 0, 0, 0, 0, 0, 0, 0, 0, 0, 0, 0, 0, 0, 0, 0, 0, 0, 0, 0, 0, 0, 0, 0, 0, 0, 0, 0, 0, 0, 0, 0, 0
0, 0, 62, 5, 3, 8, 14, 18, 44, 58, 133, 82, 129, 156, 205, 205, 209, 229, 190, 257, 243, 258, 263, 253, 256, 261, 250, 190, 209, 222, 225, 177, 165, 165, 154, 133, 135, 136, 112, 87, 85, 70, 58, 58, 30, 21, 2, 0, 0, 0, 0, 0, 0, 0, 0, 0, 0, 0, 0, 0, 0, 0, 0, 0, 0, 0, 0, 0, 0, 0, 0, 0, 0, 0, 0, 0, 0, 0, 0, 0, 0, 0, 0, 0, 0, 0, 0, 0, 0, 0, 0, 0, 0, 0, 0, 0, 0, 0, 0, 0, 0, 0, 0, 0, 0, 0
0, 0, 63, 1, 7, 8, 15, 30, 32, 66, 110, 92, 116, 147, 158, 188, 210, 228, 206, 226, 208, 251, 242, 266, 217, 291, 251, 226, 210, 219, 208, 192, 199, 163, 175, 173, 117, 113, 123, 117, 92, 81, 72, 59, 39, 23, 1, 0, 0, 0, 0, 0, 0, 0, 0, 0, 0, 0, 0, 0, 0, 0, 0, 0, 0, 0, 0, 0, 0, 0, 0, 0, 0, 0, 0, 0, 0, 0, 0, 0, 0, 0, 0, 0, 0, 0, 0, 0, 0, 0, 0, 0, 0, 0, 0, 0, 0, 0, 0, 0, 0, 0, 0, 0, 0, 0
0, 0, 64, 0, 4, 12, 16, 18, 34, 50, 101, 89, 124, 144, 179, 172, 188, 217, 262, 260, 226, 231, 248, 259, 232, 219, 242, 245, 263, 176, 242, 187, 188, 184, 156, 155, 144, 111, 120, 108, 104, 65, 85, 68, 31, 24, 1, 0, 0, 0, 0, 0, 0, 0, 0, 0, 0, 0, 0, 0, 0, 0, 0, 0, 0, 0, 0, 0, 0, 0, 0, 0, 0, 0, 0, 0, 0, 0, 0, 0, 0, 0, 0, 0, 0, 0, 0, 0, 0, 0, 0, 0, 0, 0, 0, 0, 0, 0, 0, 0, 0, 0, 0, 0, 0, 0
0, 0, 65, 1, 2, 8, 17, 24, 50, 56, 121, 108, 122, 142, 159, 210, 188, 233, 212, 255, 260, 224, 251, 239, 237, 249, 232, 232, 241, 223, 181, 200, 176, 163, 160, 131, 138, 133, 102, 86, 86, 74, 69, 63, 35, 16, 0, 0, 0, 0, 0, 0, 0, 0, 0, 0, 0, 0, 0, 0, 0, 0, 0, 0, 0, 0, 0, 0, 0, 0, 0, 0, 0, 0, 0, 0, 0, 0, 0, 0, 0, 0, 0, 0, 0, 0, 0, 0, 0, 0, 0, 0, 0, 0, 0, 0, 0, 0, 0, 0, 0, 0, 0, 0, 0, 0
0, 0, 66, 2, 3, 11, 12, 21, 36, 62, 121, 93, 111, 165, 186, 204, 196, 231, 265, 236, 250, 284, 236, 237, 234, 233, 214, 234, 197, 210, 179, 202, 184, 175, 146, 147, 136, 109, 121, 114, 99, 71, 72, 59, 36, 24, 2, 0, 0, 0, 0, 0, 0, 0, 0, 0, 0, 0, 0, 0, 0, 0, 0, 0, 0, 0, 0, 0, 0, 0, 0, 0, 0, 0, 0, 0, 0, 0, 0, 0, 0, 0, 0, 0, 0, 0, 0, 0, 0, 0, 0, 0, 0, 0, 0, 0, 0, 0, 0, 0, 0, 0, 0, 0, 0, 0
0, 0, 67, 2, 3, 5, 18, 28, 37, 54, 126, 101, 118, 144, 169, 207, 201, 225, 196, 234, 293, 234, 244, 226, 274, 239, 232, 199, 238, 206, 212, 167, 185, 187, 177, 165, 157, 115, 107, 102, 100, 79, 70, 62, 44, 21, 2, 0, 0, 0, 0, 0, 0, 0, 0, 0, 0, 0, 0, 0, 0, 0, 0, 0, 0, 0, 0, 0, 0, 0, 0, 0, 0, 0, 0, 0, 0, 0, 0, 0, 0, 0, 0, 0, 0, 0, 0, 0, 0, 0, 0, 0, 0, 0, 0, 0, 0, 0, 0, 0, 0, 0, 0, 0, 0, 0
0, 0, 68, 2, 4, 5, 15, 35, 36, 63, 101, 87, 104, 128, 175, 212, 176, 200, 228, 226, 241, 259, 244, 260, 255, 257, 247, 227, 219, 212, 185, 212, 172, 169, 151, 146, 148, 102, 112, 113, 95, 77, 73, 51, 30, 20, 0, 0, 0, 0, 0, 0, 0, 0, 0, 0, 0, 0, 0, 0, 0, 0, 0, 0, 0, 0, 0, 0, 0, 0, 0, 0, 0, 0, 0, 0, 0, 0, 0, 0, 0, 0, 0, 0, 0, 0, 0, 0, 0, 0, 0, 0, 0, 0, 0, 0, 0, 0, 0, 0, 0, 0, 0, 0, 0, 0
0, 0, 69, 4, 3, 8, 13, 38, 47, 58, 124, 99, 117, 146, 181, 201, 204, 195, 243, 233, 229, 259, 234, 253, 267, 247, 234, 238, 211, 232, 208, 186, 173, 184, 166, 169, 141, 136, 121, 99, 98, 68, 77, 57, 25, 23, 0, 0, 0, 0, 0, 0, 0, 0, 0, 0, 0, 0, 0, 0, 0, 0, 0, 0, 0, 0, 0, 0, 0, 0, 0, 0, 0, 0, 0, 0, 0, 0, 0, 0, 0, 0, 0, 0, 0, 0, 0, 0, 0, 0, 0, 0, 0, 0, 0, 0, 0, 0, 0, 0, 0, 0, 0, 0, 0, 0
0, 0, 70, 4, 3, 8, 16, 30, 53, 62, 135, 77, 106, 155, 192, 187, 202, 218, 220, 219, 237, 283, 255, 282, 251, 252, 255, 246, 240, 196, 199, 193, 185, 181, 177, 154, 141, 136, 118, 111, 99, 77, 71, 62, 37, 22, 2, 0, 0, 0, 0, 0, 0, 0, 0, 0, 0, 0, 0, 0, 0, 0, 0, 0, 0, 0, 0, 0, 0, 0, 0, 0, 0, 0, 0, 0, 0, 0, 0, 0, 0, 0, 0, 0, 0, 0, 0, 0, 0, 0, 0, 0, 0, 0, 0, 0, 0, 0, 0, 0, 0, 0, 0, 0, 0, 0
0, 0, 71, 2, 4, 7, 15, 17, 45, 65, 111, 105, 129, 134, 185, 195, 209, 187, 236, 258, 229, 262, 249, 244, 265, 237, 255, 233, 225, 208, 192, 207, 180, 167, 146, 173, 124, 149, 123, 88, 98, 83, 55, 58, 42, 14, 2, 0, 0, 0, 0, 0, 0, 0, 0, 0, 0, 0, 0, 0, 0, 0, 0, 0, 0, 0, 0, 0, 0, 0, 0, 0, 0, 0, 0, 0, 0, 0, 0, 0, 0, 0, 0, 0, 0, 0, 0, 0, 0, 0, 0, 0, 0, 0, 0, 0, 0, 0, 0, 0, 0, 0, 0, 0, 0, 0
0, 0, 72, 0, 3, 7, 22, 24, 47, 43, 136, 101, 119, 156, 166, 191, 214, 203, 230, 249, 241, 238, 277, 249, 228, 248, 236, 224, 210, 215, 200, 199, 180, 156, 152, 148, 134, 131, 132, 102, 93, 87, 71, 63, 46, 26, 2, 0, 0, 0, 0, 0, 0, 0, 0, 0, 0, 0, 0, 0, 0, 0, 0, 0, 0, 0, 0, 0, 0, 0, 0, 0, 0, 0, 0, 0, 0, 0, 0, 0, 0, 0, 0, 0, 0, 0, 0, 0, 0, 0, 0, 0, 0, 0, 0, 0, 0, 0, 0, 0, 0, 0, 0, 0, 0, 0
0, 0, 73, 5, 4, 4, 20, 30, 51, 59, 111, 100, 114, 145, 173, 191, 208, 215, 203, 251, 256, 244, 263, 242, 266, 232, 206, 211, 218, 202, 186, 193, 161, 180, 156, 148, 139, 119, 108, 112, 117, 86, 60, 44, 31, 19, 2, 0, 0, 0, 0, 0, 0, 0, 0, 0, 0, 0, 0, 0, 0, 0, 0, 0, 0, 0, 0, 0, 0, 0, 0, 0, 0, 0, 0, 0, 0, 0, 0, 0, 0, 0, 0, 0, 0, 0, 0, 0, 0, 0, 0, 0, 0, 0, 0, 0, 0, 0, 0, 0, 0, 0, 0, 0, 0, 0
0, 0, 74, 2, 2, 6, 9, 24, 41, 62, 101, 101, 106, 145, 179, 208, 190, 214, 229, 224, 237, 235, 244, 232, 257, 207, 223, 226, 233, 188, 221, 177, 192, 187, 164, 136, 136, 119, 126, 75, 97, 71, 66, 66, 39, 18, 2, 0, 0, 0, 0, 0, 0, 0, 0, 0, 0, 0, 0, 0, 0, 0, 0, 0, 0, 0, 0, 0, 0, 0, 0, 0, 0, 0, 0, 0, 0, 0, 0, 0, 0, 0, 0, 0, 0, 0, 0, 0, 0, 0, 0, 0, 0, 0, 0, 0, 0, 0, 0, 0, 0, 0, 0, 0, 0, 0
0, 0, 75, 5, 6, 9, 11, 27, 35, 78, 102, 85, 115, 153, 165, 228, 197, 200, 212, 273, 238, 284, 246, 234, 236, 245, 227, 267, 215, 210, 193, 193, 173, 162, 163, 167, 136, 141, 108, 104, 91, 73, 67, 45, 28, 20, 2, 0, 0, 0, 0, 0, 0, 0, 0, 0, 0, 0, 0, 0, 0, 0, 0, 0, 0, 0, 0, 0, 0, 0, 0, 0, 0, 0, 0, 0, 0, 0, 0, 0, 0, 0, 0, 0, 0, 0, 0, 0, 0, 0, 0, 0, 0, 0, 0, 0, 0, 0, 0, 0, 0, 0, 0, 0, 0, 0
0, 0, 76, 1, 5, 12, 14, 26, 35, 60, 103, 103, 104, 147, 186, 213, 181, 208, 231, 265, 273, 243, 207, 250, 274, 231, 223, 224, 204, 219, 204, 179, 158, 180, 146, 147, 136, 130, 129, 119, 104, 70, 69, 70, 28, 22, 0, 0, 0, 0, 0, 0, 0, 0, 0, 0, 0, 0, 0, 0, 0, 0, 0, 0, 0, 0, 0, 0, 0, 0, 0, 0, 0, 0, 0, 0, 0, 0, 0, 0, 0, 0, 0, 0, 0, 0, 0, 0, 0, 0, 0, 0, 0, 0, 0, 0, 0, 0, 0, 0, 0, 0, 0, 0, 0, 0
0, 0, 77, 3, 3, 9, 15, 31, 39, 54, 101, 98, 115, 148, 174, 203, 191, 211, 214, 241, 242, 242, 263, 272, 256, 241, 216, 204, 221, 196, 206, 173, 210, 126, 160, 136, 147, 132, 129, 111, 82, 80, 86, 49, 32, 14, 1, 0, 0, 0, 0, 0, 0, 0, 0, 0, 0, 0, 0, 0, 0, 0, 0, 0, 0, 0, 0, 0, 0, 0, 0, 0, 0, 0, 0, 0, 0, 0, 0, 0, 0, 0, 0, 0, 0, 0, 0, 0, 0, 0, 0, 0, 0, 0, 0, 0, 0, 0, 0, 0, 0, 0, 0, 0, 0, 0
