# TOPAS Version: 3.1.p3
# Parameter File: REDLEN_small_phantom_mc_basic_4cm.txt
# Results for scorer PhantomDose
# Scored on surface: CdTeCrystal1/YPlusSurface
# X in 100 bins of 0.03332 cm
# Y in 1 bin  of 0.4 cm
# Z in 100 bins of 0.0375 cm
# SurfaceTrackCount : Sum   
# Binned by incident track energy in 100 bins of 0.00104 MeV from 0.016 MeV to 0.12 MeV
# First bin is underflow, next to last bin is overflow, last bin is for case of no incident track.
0, 0, 0, 0, 0, 0, 0, 0, 0, 0, 0, 1, 2, 0, 5, 0, 6, 2, 5, 3, 2, 5, 0, 3, 2, 3, 2, 1, 3, 1, 0, 3, 2, 2, 1, 1, 2, 3, 3, 2, 1, 1, 1, 0, 1, 0, 0, 0, 0, 0, 0, 0, 0, 0, 0, 0, 0, 0, 0, 0, 0, 0, 0, 0, 0, 0, 0, 0, 0, 0, 0, 0, 0, 0, 0, 0, 0, 0, 0, 0, 0, 0, 0, 0, 0, 0, 0, 0, 0, 0, 0, 0, 0, 0, 0, 0, 0, 0, 0, 0, 0, 0, 0, 0, 0, 0
0, 0, 1, 0, 0, 0, 0, 0, 0, 0, 2, 1, 0, 0, 0, 0, 1, 0, 1, 2, 2, 2, 2, 3, 3, 3, 2, 2, 3, 0, 2, 6, 1, 7, 2, 2, 2, 3, 1, 0, 4, 1, 0, 1, 0, 1, 0, 0, 0, 0, 0, 0, 0, 0, 0, 0, 0, 0, 0, 0, 0, 0, 0, 0, 0, 0, 0, 0, 0, 0, 0, 0, 0, 0, 0, 0, 0, 0, 0, 0, 0, 0, 0, 0, 0, 0, 0, 0, 0, 0, 0, 0, 0, 0, 0, 0, 0, 0, 0, 0, 0, 0, 0, 0, 0, 0
0, 0, 2, 0, 0, 0, 0, 1, 0, 1, 0, 0, 2, 1, 1, 2, 1, 0, 0, 1, 2, 2, 1, 2, 3, 3, 1, 2, 2, 2, 1, 2, 6, 2, 2, 2, 1, 1, 1, 1, 1, 1, 1, 1, 0, 0, 0, 0, 0, 0, 0, 0, 0, 0, 0, 0, 0, 0, 0, 0, 0, 0, 0, 0, 0, 0, 0, 0, 0, 0, 0, 0, 0, 0, 0, 0, 0, 0, 0, 0, 0, 0, 0, 0, 0, 0, 0, 0, 0, 0, 0, 0, 0, 0, 0, 0, 0, 0, 0, 0, 0, 0, 0, 0, 0, 0
0, 0, 3, 2, 0, 0, 0, 0, 0, 1, 3, 0, 1, 3, 1, 1, 3, 2, 3, 8, 0, 3, 3, 3, 2, 1, 0, 3, 2, 1, 2, 4, 2, 2, 1, 1, 1, 3, 2, 0, 1, 2, 0, 0, 0, 0, 0, 0, 0, 0, 0, 0, 0, 0, 0, 0, 0, 0, 0, 0, 0, 0, 0, 0, 0, 0, 0, 0, 0, 0, 0, 0, 0, 0, 0, 0, 0, 0, 0, 0, 0, 0, 0, 0, 0, 0, 0, 0, 0, 0, 0, 0, 0, 0, 0, 0, 0, 0, 0, 0, 0, 0, 0, 0, 0, 0
0, 0, 4, 2, 0, 0, 0, 0, 0, 1, 0, 0, 2, 0, 1, 3, 1, 3, 2, 1, 1, 2, 2, 2, 2, 1, 3, 1, 2, 4, 1, 2, 2, 1, 3, 1, 2, 2, 3, 2, 3, 0, 2, 0, 1, 0, 0, 0, 0, 0, 0, 0, 0, 0, 0, 0, 0, 0, 0, 0, 0, 0, 0, 0, 0, 0, 0, 0, 0, 0, 0, 0, 0, 0, 0, 0, 0, 0, 0, 0, 0, 0, 0, 0, 0, 0, 0, 0, 0, 0, 0, 0, 0, 0, 0, 0, 0, 0, 0, 0, 0, 0, 0, 0, 0, 0
0, 0, 5, 2, 2, 3, 9, 10, 19, 27, 58, 46, 57, 64, 75, 109, 99, 78, 104, 100, 93, 91, 105, 114, 94, 103, 98, 98, 99, 99, 92, 87, 85, 75, 81, 68, 44, 48, 53, 43, 49, 31, 25, 24, 9, 15, 0, 0, 0, 0, 0, 0, 0, 0, 0, 0, 0, 0, 0, 0, 0, 0, 0, 0, 0, 0, 0, 0, 0, 0, 0, 0, 0, 0, 0, 0, 0, 0, 0, 0, 0, 0, 0, 0, 0, 0, 0, 0, 0, 0, 0, 0, 0, 0, 0, 0, 0, 0, 0, 0, 0, 0, 0, 0, 0, 0
0, 0, 6, 7, 3, 6, 14, 26, 42, 57, 130, 98, 99, 121, 164, 219, 220, 214, 222, 250, 243, 271, 206, 241, 246, 270, 240, 223, 209, 213, 174, 174, 144, 167, 163, 149, 137, 102, 118, 108, 82, 76, 71, 66, 49, 20, 3, 0, 0, 0, 0, 0, 0, 0, 0, 0, 0, 0, 0, 0, 0, 0, 0, 0, 0, 0, 0, 0, 0, 0, 0, 0, 0, 0, 0, 0, 0, 0, 0, 0, 0, 0, 0, 0, 0, 0, 0, 0, 0, 0, 0, 0, 0, 0, 0, 0, 0, 0, 0, 0, 0, 0, 0, 0, 0, 0
0, 0, 7, 1, 5, 5, 11, 27, 35, 53, 129, 106, 122, 128, 177, 219, 207, 252, 245, 243, 252, 252, 248, 275, 253, 225, 220, 227, 201, 202, 215, 240, 178, 155, 163, 145, 142, 124, 110, 110, 97, 49, 76, 45, 33, 29, 2, 0, 0, 0, 0, 0, 0, 0, 0, 0, 0, 0, 0, 0, 0, 0, 0, 0, 0, 0, 0, 0, 0, 0, 0, 0, 0, 0, 0, 0, 0, 0, 0, 0, 0, 0, 0, 0, 0, 0, 0, 0, 0, 0, 0, 0, 0, 0, 0, 0, 0, 0, 0, 0, 0, 0, 0, 0, 0, 0
0, 0, 8, 0, 7, 6, 22, 25, 38, 53, 117, 102, 118, 150, 186, 222, 213, 216, 204, 265, 265, 256, 243, 246, 257, 238, 222, 215, 209, 199, 231, 191, 177, 168, 137, 171, 132, 107, 128, 116, 86, 84, 59, 68, 36, 32, 1, 0, 0, 0, 0, 0, 0, 0, 0, 0, 0, 0, 0, 0, 0, 0, 0, 0, 0, 0, 0, 0, 0, 0, 0, 0, 0, 0, 0, 0, 0, 0, 0, 0, 0, 0, 0, 0, 0, 0, 0, 0, 0, 0, 0, 0, 0, 0, 0, 0, 0, 0, 0, 0, 0, 0, 0, 0, 0, 0
0, 0, 9, 4, 2, 7, 10, 36, 28, 53, 122, 97, 110, 155, 147, 217, 217, 206, 239, 225, 269, 248, 246, 219, 247, 232, 240, 209, 223, 221, 198, 163, 191, 178, 167, 178, 154, 138, 116, 89, 83, 65, 71, 42, 46, 13, 1, 0, 0, 0, 0, 0, 0, 0, 0, 0, 0, 0, 0, 0, 0, 0, 0, 0, 0, 0, 0, 0, 0, 0, 0, 0, 0, 0, 0, 0, 0, 0, 0, 0, 0, 0, 0, 0, 0, 0, 0, 0, 0, 0, 0, 0, 0, 0, 0, 0, 0, 0, 0, 0, 0, 0, 0, 0, 0, 0
0, 0, 10, 0, 1, 1, 12, 29, 37, 58, 114, 120, 119, 141, 175, 192, 196, 220, 222, 250, 239, 254, 254, 218, 267, 271, 220, 220, 238, 215, 201, 174, 180, 181, 158, 158, 140, 139, 110, 105, 82, 79, 72, 59, 39, 21, 1, 0, 0, 0, 0, 0, 0, 0, 0, 0, 0, 0, 0, 0, 0, 0, 0, 0, 0, 0, 0, 0, 0, 0, 0, 0, 0, 0, 0, 0, 0, 0, 0, 0, 0, 0, 0, 0, 0, 0, 0, 0, 0, 0, 0, 0, 0, 0, 0, 0, 0, 0, 0, 0, 0, 0, 0, 0, 0, 0
0, 0, 11, 3, 1, 12, 15, 35, 45, 48, 123, 109, 121, 135, 171, 206, 199, 229, 222, 260, 223, 222, 264, 242, 229, 244, 215, 232, 249, 176, 192, 187, 181, 154, 152, 137, 127, 145, 118, 102, 93, 98, 65, 52, 41, 20, 1, 0, 0, 0, 0, 0, 0, 0, 0, 0, 0, 0, 0, 0, 0, 0, 0, 0, 0, 0, 0, 0, 0, 0, 0, 0, 0, 0, 0, 0, 0, 0, 0, 0, 0, 0, 0, 0, 0, 0, 0, 0, 0, 0, 0, 0, 0, 0, 0, 0, 0, 0, 0, 0, 0, 0, 0, 0, 0, 0
0, 0, 12, 12, 6, 6, 17, 18, 52, 63, 124, 85, 117, 138, 178, 194, 180, 247, 255, 261, 249, 264, 267, 249, 255, 224, 245, 221, 184, 199, 239, 220, 185, 156, 183, 149, 108, 120, 118, 114, 92, 81, 82, 58, 40, 26, 2, 0, 0, 0, 0, 0, 0, 0, 0, 0, 0, 0, 0, 0, 0, 0, 0, 0, 0, 0, 0, 0, 0, 0, 0, 0, 0, 0, 0, 0, 0, 0, 0, 0, 0, 0, 0, 0, 0, 0, 0, 0, 0, 0, 0, 0, 0, 0, 0, 0, 0, 0, 0, 0, 0, 0, 0, 0, 0, 0
0, 0, 13, 1, 2, 8, 22, 25, 33, 63, 119, 102, 115, 135, 190, 184, 201, 190, 230, 235, 231, 239, 293, 267, 258, 238, 205, 184, 205, 202, 171, 199, 192, 150, 155, 126, 133, 138, 132, 94, 96, 82, 75, 67, 34, 18, 2, 0, 0, 0, 0, 0, 0, 0, 0, 0, 0, 0, 0, 0, 0, 0, 0, 0, 0, 0, 0, 0, 0, 0, 0, 0, 0, 0, 0, 0, 0, 0, 0, 0, 0, 0, 0, 0, 0, 0, 0, 0, 0, 0, 0, 0, 0, 0, 0, 0, 0, 0, 0, 0, 0, 0, 0, 0, 0, 0
0, 0, 14, 0, 3, 9, 15, 32, 43, 62, 140, 89, 105, 134, 176, 201, 215, 196, 230, 255, 282, 234, 243, 208, 238, 240, 241, 226, 198, 214, 187, 164, 214, 155, 158, 115, 127, 122, 111, 106, 89, 86, 68, 52, 34, 23, 1, 0, 0, 0, 0, 0, 0, 0, 0, 0, 0, 0, 0, 0, 0, 0, 0, 0, 0, 0, 0, 0, 0, 0, 0, 0, 0, 0, 0, 0, 0, 0, 0, 0, 0, 0, 0, 0, 0, 0, 0, 0, 0, 0, 0, 0, 0, 0, 0, 0, 0, 0, 0, 0, 0, 0, 0, 0, 0, 0
0, 0, 15, 4, 2, 7, 19, 19, 44, 57, 116, 84, 113, 115, 185, 194, 208, 209, 231, 241, 257, 243, 217, 213, 267, 218, 206, 234, 224, 228, 202, 199, 166, 163, 143, 169, 138, 139, 118, 102, 102, 99, 52, 60, 32, 16, 2, 0, 0, 0, 0, 0, 0, 0, 0, 0, 0, 0, 0, 0, 0, 0, 0, 0, 0, 0, 0, 0, 0, 0, 0, 0, 0, 0, 0, 0, 0, 0, 0, 0, 0, 0, 0, 0, 0, 0, 0, 0, 0, 0, 0, 0, 0, 0, 0, 0, 0, 0, 0, 0, 0, 0, 0, 0, 0, 0
0, 0, 16, 4, 6, 7, 15, 25, 45, 45, 98, 86, 107, 133, 165, 197, 212, 222, 228, 235, 266, 245, 229, 261, 245, 239, 214, 232, 226, 205, 170, 198, 192, 180, 172, 133, 157, 143, 121, 105, 85, 64, 60, 56, 29, 20, 2, 0, 0, 0, 0, 0, 0, 0, 0, 0, 0, 0, 0, 0, 0, 0, 0, 0, 0, 0, 0, 0, 0, 0, 0, 0, 0, 0, 0, 0, 0, 0, 0, 0, 0, 0, 0, 0, 0, 0, 0, 0, 0, 0, 0, 0, 0, 0, 0, 0, 0, 0, 0, 0, 0, 0, 0, 0, 0, 0
0, 0, 17, 8, 1, 11, 18, 25, 36, 55, 126, 80, 115, 137, 149, 173, 206, 226, 230, 213, 240, 248, 258, 268, 236, 226, 196, 238, 230, 216, 242, 188, 164, 160, 151, 147, 144, 116, 107, 118, 96, 72, 75, 35, 47, 19, 0, 0, 0, 0, 0, 0, 0, 0, 0, 0, 0, 0, 0, 0, 0, 0, 0, 0, 0, 0, 0, 0, 0, 0, 0, 0, 0, 0, 0, 0, 0, 0, 0, 0, 0, 0, 0, 0, 0, 0, 0, 0, 0, 0, 0, 0, 0, 0, 0, 0, 0, 0, 0, 0, 0, 0, 0, 0, 0, 0
0, 0, 18, 5, 6, 9, 13, 20, 39, 60, 117, 78, 119, 147, 183, 197, 222, 205, 250, 278, 236, 259, 248, 264, 231, 232, 218, 241, 199, 223, 165, 206, 170, 147, 139, 165, 134, 136, 116, 111, 107, 101, 54, 68, 36, 19, 3, 0, 0, 0, 0, 0, 0, 0, 0, 0, 0, 0, 0, 0, 0, 0, 0, 0, 0, 0, 0, 0, 0, 0, 0, 0, 0, 0, 0, 0, 0, 0, 0, 0, 0, 0, 0, 0, 0, 0, 0, 0, 0, 0, 0, 0, 0, 0, 0, 0, 0, 0, 0, 0, 0, 0, 0, 0, 0, 0
0, 0, 19, 3, 3, 12, 14, 26, 43, 64, 125, 101, 137, 129, 169, 182, 199, 222, 241, 234, 259, 258, 239, 238, 248, 232, 203, 185, 213, 201, 201, 190, 186, 171, 166, 140, 115, 104, 115, 103, 86, 82, 56, 50, 39, 18, 1, 0, 0, 0, 0, 0, 0, 0, 0, 0, 0, 0, 0, 0, 0, 0, 0, 0, 0, 0, 0, 0, 0, 0, 0, 0, 0, 0, 0, 0, 0, 0, 0, 0, 0, 0, 0, 0, 0, 0, 0, 0, 0, 0, 0, 0, 0, 0, 0, 0, 0, 0, 0, 0, 0, 0, 0, 0, 0, 0
0, 0, 20, 4, 4, 9, 19, 24, 50, 48, 112, 108, 134, 148, 167, 196, 190, 231, 207, 227, 249, 241, 307, 249, 232, 270, 241, 241, 230, 206, 190, 182, 162, 158, 165, 148, 129, 127, 126, 107, 89, 67, 67, 59, 36, 16, 2, 0, 0, 0, 0, 0, 0, 0, 0, 0, 0, 0, 0, 0, 0, 0, 0, 0, 0, 0, 0, 0, 0, 0, 0, 0, 0, 0, 0, 0, 0, 0, 0, 0, 0, 0, 0, 0, 0, 0, 0, 0, 0, 0, 0, 0, 0, 0, 0, 0, 0, 0, 0, 0, 0, 0, 0, 0, 0, 0
0, 0, 21, 0, 9, 10, 14, 24, 40, 56, 96, 104, 105, 142, 175, 193, 210, 221, 214, 244, 254, 247, 238, 258, 226, 235, 226, 216, 259, 222, 175, 189, 182, 195, 178, 141, 136, 127, 125, 93, 109, 85, 65, 63, 35, 30, 0, 0, 0, 0, 0, 0, 0, 0, 0, 0, 0, 0, 0, 0, 0, 0, 0, 0, 0, 0, 0, 0, 0, 0, 0, 0, 0, 0, 0, 0, 0, 0, 0, 0, 0, 0, 0, 0, 0, 0, 0, 0, 0, 0, 0, 0, 0, 0, 0, 0, 0, 0, 0, 0, 0, 0, 0, 0, 0, 0
0, 0, 22, 4, 8, 9, 18, 33, 43, 71, 91, 88, 130, 141, 174, 186, 202, 201, 214, 248, 247, 253, 239, 268, 258, 262, 207, 240, 254, 216, 214, 202, 171, 176, 159, 154, 139, 150, 117, 97, 84, 86, 68, 47, 44, 24, 0, 0, 0, 0, 0, 0, 0, 0, 0, 0, 0, 0, 0, 0, 0, 0, 0, 0, 0, 0, 0, 0, 0, 0, 0, 0, 0, 0, 0, 0, 0, 0, 0, 0, 0, 0, 0, 0, 0, 0, 0, 0, 0, 0, 0, 0, 0, 0, 0, 0, 0, 0, 0, 0, 0, 0, 0, 0, 0, 0
0, 0, 23, 2, 0, 9, 23, 15, 41, 63, 123, 111, 117, 141, 157, 191, 171, 235, 242, 253, 253, 247, 266, 269, 245, 203, 241, 232, 196, 201, 203, 182, 163, 153, 142, 140, 125, 137, 136, 96, 75, 76, 68, 58, 21, 22, 1, 0, 0, 0, 0, 0, 0, 0, 0, 0, 0, 0, 0, 0, 0, 0, 0, 0, 0, 0, 0, 0, 0, 0, 0, 0, 0, 0, 0, 0, 0, 0, 0, 0, 0, 0, 0, 0, 0, 0, 0, 0, 0, 0, 0, 0, 0, 0, 0, 0, 0, 0, 0, 0, 0, 0, 0, 0, 0, 0
0, 0, 24, 4, 3, 5, 17, 15, 42, 55, 132, 74, 115, 136, 157, 199, 211, 178, 224, 270, 223, 237, 219, 281, 257, 258, 251, 231, 238, 211, 214, 168, 164, 187, 148, 147, 126, 122, 103, 106, 104, 74, 59, 61, 46, 24, 4, 0, 0, 0, 0, 0, 0, 0, 0, 0, 0, 0, 0, 0, 0, 0, 0, 0, 0, 0, 0, 0, 0, 0, 0, 0, 0, 0, 0, 0, 0, 0, 0, 0, 0, 0, 0, 0, 0, 0, 0, 0, 0, 0, 0, 0, 0, 0, 0, 0, 0, 0, 0, 0, 0, 0, 0, 0, 0, 0
0, 0, 25, 0, 3, 11, 13, 23, 42, 67, 111, 87, 96, 158, 159, 227, 204, 225, 233, 253, 235, 251, 264, 260, 260, 239, 246, 248, 222, 207, 223, 179, 165, 174, 145, 155, 135, 107, 113, 110, 106, 87, 73, 52, 48, 17, 1, 0, 0, 0, 0, 0, 0, 0, 0, 0, 0, 0, 0, 0, 0, 0, 0, 0, 0, 0, 0, 0, 0, 0, 0, 0, 0, 0, 0, 0, 0, 0, 0, 0, 0, 0, 0, 0, 0, 0, 0, 0, 0, 0, 0, 0, 0, 0, 0, 0, 0, 0, 0, 0, 0, 0, 0, 0, 0, 0
0, 0, 26, 2, 6, 6, 18, 21, 50, 68, 129, 96, 116, 137, 187, 188, 199, 198, 197, 251, 241, 224, 236, 251, 215, 264, 219, 220, 186, 221, 206, 170, 161, 150, 166, 152, 143, 107, 92, 88, 95, 80, 72, 67, 46, 14, 0, 0, 0, 0, 0, 0, 0, 0, 0, 0, 0, 0, 0, 0, 0, 0, 0, 0, 0, 0, 0, 0, 0, 0, 0, 0, 0, 0, 0, 0, 0, 0, 0, 0, 0, 0, 0, 0, 0, 0, 0, 0, 0, 0, 0, 0, 0, 0, 0, 0, 0, 0, 0, 0, 0, 0, 0, 0, 0, 0
0, 0, 27, 6, 5, 10, 23, 23, 35, 57, 123, 113, 131, 147, 150, 199, 226, 186, 222, 272, 254, 234, 216, 249, 264, 214, 226, 224, 209, 228, 211, 175, 168, 166, 155, 161, 144, 127, 132, 113, 92, 85, 56, 47, 36, 22, 0, 0, 0, 0, 0, 0, 0, 0, 0, 0, 0, 0, 0, 0, 0, 0, 0, 0, 0, 0, 0, 0, 0, 0, 0, 0, 0, 0, 0, 0, 0, 0, 0, 0, 0, 0, 0, 0, 0, 0, 0, 0, 0, 0, 0, 0, 0, 0, 0, 0, 0, 0, 0, 0, 0, 0, 0, 0, 0, 0
0, 0, 28, 1, 8, 8, 17, 27, 31, 51, 113, 81, 111, 120, 193, 178, 207, 170, 235, 246, 248, 253, 224, 256, 239, 224, 246, 239, 232, 216, 209, 193, 183, 175, 133, 162, 127, 137, 127, 107, 110, 78, 68, 57, 34, 23, 1, 0, 0, 0, 0, 0, 0, 0, 0, 0, 0, 0, 0, 0, 0, 0, 0, 0, 0, 0, 0, 0, 0, 0, 0, 0, 0, 0, 0, 0, 0, 0, 0, 0, 0, 0, 0, 0, 0, 0, 0, 0, 0, 0, 0, 0, 0, 0, 0, 0, 0, 0, 0, 0, 0, 0, 0, 0, 0, 0
0, 0, 29, 2, 3, 9, 16, 20, 42, 49, 122, 85, 114, 134, 173, 207, 178, 216, 223, 239, 221, 239, 244, 249, 219, 239, 243, 247, 216, 214, 180, 176, 163, 215, 157, 160, 128, 144, 117, 101, 93, 67, 60, 58, 39, 26, 0, 0, 0, 0, 0, 0, 0, 0, 0, 0, 0, 0, 0, 0, 0, 0, 0, 0, 0, 0, 0, 0, 0, 0, 0, 0, 0, 0, 0, 0, 0, 0, 0, 0, 0, 0, 0, 0, 0, 0, 0, 0, 0, 0, 0, 0, 0, 0, 0, 0, 0, 0, 0, 0, 0, 0, 0, 0, 0, 0
0, 0, 30, 1, 4, 9, 13, 25, 32, 46, 123, 85, 122, 136, 171, 185, 195, 205, 235, 251, 241, 241, 259, 251, 242, 219, 251, 203, 233, 187, 192, 204, 194, 176, 161, 139, 140, 121, 86, 117, 93, 86, 59, 34, 42, 18, 1, 0, 0, 0, 0, 0, 0, 0, 0, 0, 0, 0, 0, 0, 0, 0, 0, 0, 0, 0, 0, 0, 0, 0, 0, 0, 0, 0, 0, 0, 0, 0, 0, 0, 0, 0, 0, 0, 0, 0, 0, 0, 0, 0, 0, 0, 0, 0, 0, 0, 0, 0, 0, 0, 0, 0, 0, 0, 0, 0
0, 0, 31, 7, 2, 11, 21, 22, 34, 57, 111, 77, 116, 140, 181, 181, 218, 233, 202, 233, 246, 251, 245, 263, 209, 220, 253, 211, 212, 213, 196, 177, 143, 150, 164, 152, 151, 126, 134, 106, 106, 77, 69, 54, 52, 12, 4, 0, 0, 0, 0, 0, 0, 0, 0, 0, 0, 0, 0, 0, 0, 0, 0, 0, 0, 0, 0, 0, 0, 0, 0, 0, 0, 0, 0, 0, 0, 0, 0, 0, 0, 0, 0, 0, 0, 0, 0, 0, 0, 0, 0, 0, 0, 0, 0, 0, 0, 0, 0, 0, 0, 0, 0, 0, 0, 0
0, 0, 32, 2, 4, 8, 19, 30, 37, 55, 112, 92, 117, 147, 172, 207, 186, 212, 222, 236, 261, 278, 312, 251, 256, 209, 251, 230, 209, 242, 177, 183, 165, 165, 168, 139, 151, 122, 128, 108, 72, 85, 67, 50, 41, 26, 2, 0, 0, 0, 0, 0, 0, 0, 0, 0, 0, 0, 0, 0, 0, 0, 0, 0, 0, 0, 0, 0, 0, 0, 0, 0, 0, 0, 0, 0, 0, 0, 0, 0, 0, 0, 0, 0, 0, 0, 0, 0, 0, 0, 0, 0, 0, 0, 0, 0, 0, 0, 0, 0, 0, 0, 0, 0, 0, 0
0, 0, 33, 2, 4, 13, 14, 24, 38, 63, 117, 88, 118, 133, 157, 208, 194, 197, 201, 241, 280, 252, 269, 203, 248, 194, 242, 207, 205, 236, 209, 174, 176, 194, 150, 166, 151, 110, 112, 105, 96, 71, 59, 54, 59, 25, 0, 0, 0, 0, 0, 0, 0, 0, 0, 0, 0, 0, 0, 0, 0, 0, 0, 0, 0, 0, 0, 0, 0, 0, 0, 0, 0, 0, 0, 0, 0, 0, 0, 0, 0, 0, 0, 0, 0, 0, 0, 0, 0, 0, 0, 0, 0, 0, 0, 0, 0, 0, 0, 0, 0, 0, 0, 0, 0, 0
0, 0, 34, 5, 2, 7, 9, 32, 32, 50, 115, 92, 115, 132, 189, 226, 211, 214, 226, 232, 248, 267, 238, 263, 247, 253, 256, 224, 217, 218, 178, 206, 168, 177, 120, 157, 148, 126, 115, 103, 109, 85, 58, 64, 48, 27, 1, 0, 0, 0, 0, 0, 0, 0, 0, 0, 0, 0, 0, 0, 0, 0, 0, 0, 0, 0, 0, 0, 0, 0, 0, 0, 0, 0, 0, 0, 0, 0, 0, 0, 0, 0, 0, 0, 0, 0, 0, 0, 0, 0, 0, 0, 0, 0, 0, 0, 0, 0, 0, 0, 0, 0, 0, 0, 0, 0
0, 0, 35, 0, 4, 7, 7, 20, 37, 49, 128, 91, 123, 148, 177, 197, 180, 223, 221, 236, 244, 226, 233, 254, 245, 248, 254, 240, 221, 180, 215, 198, 196, 165, 173, 124, 112, 127, 95, 106, 105, 79, 67, 54, 26, 19, 0, 0, 0, 0, 0, 0, 0, 0, 0, 0, 0, 0, 0, 0, 0, 0, 0, 0, 0, 0, 0, 0, 0, 0, 0, 0, 0, 0, 0, 0, 0, 0, 0, 0, 0, 0, 0, 0, 0, 0, 0, 0, 0, 0, 0, 0, 0, 0, 0, 0, 0, 0, 0, 0, 0, 0, 0, 0, 0, 0
0, 0, 36, 6, 7, 10, 18, 21, 29, 45, 112, 97, 119, 138, 162, 196, 193, 216, 226, 210, 237, 282, 268, 250, 257, 229, 275, 240, 208, 226, 207, 176, 180, 161, 157, 133, 154, 135, 115, 112, 85, 72, 68, 44, 47, 16, 2, 0, 0, 0, 0, 0, 0, 0, 0, 0, 0, 0, 0, 0, 0, 0, 0, 0, 0, 0, 0, 0, 0, 0, 0, 0, 0, 0, 0, 0, 0, 0, 0, 0, 0, 0, 0, 0, 0, 0, 0, 0, 0, 0, 0, 0, 0, 0, 0, 0, 0, 0, 0, 0, 0, 0, 0, 0, 0, 0
0, 0, 37, 5, 10, 5, 17, 21, 41, 58, 135, 108, 117, 142, 168, 186, 174, 188, 221, 272, 221, 220, 270, 288, 240, 240, 225, 218, 218, 211, 212, 182, 195, 178, 175, 137, 141, 123, 132, 100, 87, 82, 87, 52, 46, 14, 0, 0, 0, 0, 0, 0, 0, 0, 0, 0, 0, 0, 0, 0, 0, 0, 0, 0, 0, 0, 0, 0, 0, 0, 0, 0, 0, 0, 0, 0, 0, 0, 0, 0, 0, 0, 0, 0, 0, 0, 0, 0, 0, 0, 0, 0, 0, 0, 0, 0, 0, 0, 0, 0, 0, 0, 0, 0, 0, 0
0, 0, 38, 1, 7, 8, 15, 19, 43, 55, 130, 101, 117, 134, 168, 198, 195, 212, 194, 241, 248, 258, 247, 252, 224, 214, 245, 240, 201, 211, 194, 199, 179, 190, 177, 139, 122, 128, 120, 95, 102, 87, 58, 54, 35, 29, 2, 0, 0, 0, 0, 0, 0, 0, 0, 0, 0, 0, 0, 0, 0, 0, 0, 0, 0, 0, 0, 0, 0, 0, 0, 0, 0, 0, 0, 0, 0, 0, 0, 0, 0, 0, 0, 0, 0, 0, 0, 0, 0, 0, 0, 0, 0, 0, 0, 0, 0, 0, 0, 0, 0, 0, 0, 0, 0, 0
0, 0, 39, 1, 3, 9, 11, 24, 38, 39, 115, 90, 104, 127, 170, 235, 191, 217, 221, 263, 254, 210, 243, 262, 207, 228, 216, 206, 213, 208, 204, 220, 179, 208, 166, 127, 125, 118, 114, 116, 96, 68, 77, 49, 26, 23, 3, 0, 0, 0, 0, 0, 0, 0, 0, 0, 0, 0, 0, 0, 0, 0, 0, 0, 0, 0, 0, 0, 0, 0, 0, 0, 0, 0, 0, 0, 0, 0, 0, 0, 0, 0, 0, 0, 0, 0, 0, 0, 0, 0, 0, 0, 0, 0, 0, 0, 0, 0, 0, 0, 0, 0, 0, 0, 0, 0
0, 0, 40, 1, 4, 9, 15, 21, 34, 41, 125, 96, 115, 163, 181, 167, 222, 239, 237, 213, 263, 235, 216, 205, 240, 268, 215, 192, 230, 203, 198, 184, 168, 177, 149, 158, 136, 140, 117, 111, 96, 79, 68, 58, 50, 24, 3, 0, 0, 0, 0, 0, 0, 0, 0, 0, 0, 0, 0, 0, 0, 0, 0, 0, 0, 0, 0, 0, 0, 0, 0, 0, 0, 0, 0, 0, 0, 0, 0, 0, 0, 0, 0, 0, 0, 0, 0, 0, 0, 0, 0, 0, 0, 0, 0, 0, 0, 0, 0, 0, 0, 0, 0, 0, 0, 0
0, 0, 41, 2, 2, 7, 15, 19, 34, 51, 105, 85, 112, 144, 148, 188, 182, 219, 217, 236, 193, 243, 211, 197, 229, 221, 220, 196, 228, 182, 207, 166, 190, 155, 167, 139, 120, 113, 111, 84, 90, 75, 52, 56, 20, 20, 0, 0, 0, 0, 0, 0, 0, 0, 0, 0, 0, 0, 0, 0, 0, 0, 0, 0, 0, 0, 0, 0, 0, 0, 0, 0, 0, 0, 0, 0, 0, 0, 0, 0, 0, 0, 0, 0, 0, 0, 0, 0, 0, 0, 0, 0, 0, 0, 0, 0, 0, 0, 0, 0, 0, 0, 0, 0, 0, 0
0, 0, 42, 0, 3, 3, 12, 16, 26, 34, 64, 78, 89, 122, 122, 134, 122, 171, 152, 186, 177, 152, 158, 173, 148, 155, 192, 178, 164, 170, 143, 146, 141, 128, 120, 106, 97, 86, 98, 71, 62, 43, 59, 40, 41, 12, 0, 0, 0, 0, 0, 0, 0, 0, 0, 0, 0, 0, 0, 0, 0, 0, 0, 0, 0, 0, 0, 0, 0, 0, 0, 0, 0, 0, 0, 0, 0, 0, 0, 0, 0, 0, 0, 0, 0, 0, 0, 0, 0, 0, 0, 0, 0, 0, 0, 0, 0, 0, 0, 0, 0, 0, 0, 0, 0, 0
0, 0, 43, 2, 2, 2, 11, 20, 23, 24, 61, 58, 68, 79, 86, 133, 121, 118, 131, 150, 143, 138, 153, 143, 117, 162, 132, 140, 137, 117, 124, 111, 110, 100, 104, 99, 72, 91, 70, 71, 57, 47, 38, 26, 33, 11, 1, 0, 0, 0, 0, 0, 0, 0, 0, 0, 0, 0, 0, 0, 0, 0, 0, 0, 0, 0, 0, 0, 0, 0, 0, 0, 0, 0, 0, 0, 0, 0, 0, 0, 0, 0, 0, 0, 0, 0, 0, 0, 0, 0, 0, 0, 0, 0, 0, 0, 0, 0, 0, 0, 0, 0, 0, 0, 0, 0
0, 0, 44, 1, 1, 3, 8, 12, 13, 19, 44, 30, 48, 65, 68, 82, 93, 74, 89, 95, 120, 133, 101, 120, 127, 118, 99, 107, 94, 91, 99, 92, 95, 73, 65, 67, 78, 78, 60, 63, 46, 33, 25, 21, 19, 13, 0, 0, 0, 0, 0, 0, 0, 0, 0, 0, 0, 0, 0, 0, 0, 0, 0, 0, 0, 0, 0, 0, 0, 0, 0, 0, 0, 0, 0, 0, 0, 0, 0, 0, 0, 0, 0, 0, 0, 0, 0, 0, 0, 0, 0, 0, 0, 0, 0, 0, 0, 0, 0, 0, 0, 0, 0, 0, 0, 0
0, 0, 45, 0, 0, 5, 3, 6, 9, 11, 30, 17, 29, 38, 59, 63, 67, 77, 59, 64, 73, 76, 87, 64, 80, 83, 80, 84, 59, 74, 76, 72, 71, 70, 63, 70, 49, 59, 32, 54, 26, 27, 26, 14, 17, 10, 1, 0, 0, 0, 0, 0, 0, 0, 0, 0, 0, 0, 0, 0, 0, 0, 0, 0, 0, 0, 0, 0, 0, 0, 0, 0, 0, 0, 0, 0, 0, 0, 0, 0, 0, 0, 0, 0, 0, 0, 0, 0, 0, 0, 0, 0, 0, 0, 0, 0, 0, 0, 0, 0, 0, 0, 0, 0, 0, 0
0, 0, 46, 0, 0, 2, 4, 2, 4, 8, 22, 20, 20, 33, 33, 37, 44, 55, 53, 49, 54, 54, 58, 60, 71, 78, 62, 55, 67, 53, 51, 55, 49, 62, 57, 54, 61, 47, 33, 31, 27, 23, 25, 15, 9, 12, 0, 0, 0, 0, 0, 0, 0, 0, 0, 0, 0, 0, 0, 0, 0, 0, 0, 0, 0, 0, 0, 0, 0, 0, 0, 0, 0, 0, 0, 0, 0, 0, 0, 0, 0, 0, 0, 0, 0, 0, 0, 0, 0, 0, 0, 0, 0, 0, 0, 0, 0, 0, 0, 0, 0, 0, 0, 0, 0, 0
0, 0, 47, 4, 0, 0, 2, 3, 3, 5, 11, 11, 12, 12, 19, 22, 25, 23, 31, 33, 36, 41, 27, 39, 51, 41, 50, 37, 42, 38, 49, 53, 49, 44, 33, 32, 41, 28, 18, 26, 23, 20, 20, 14, 6, 3, 2, 0, 0, 0, 0, 0, 0, 0, 0, 0, 0, 0, 0, 0, 0, 0, 0, 0, 0, 0, 0, 0, 0, 0, 0, 0, 0, 0, 0, 0, 0, 0, 0, 0, 0, 0, 0, 0, 0, 0, 0, 0, 0, 0, 0, 0, 0, 0, 0, 0, 0, 0, 0, 0, 0, 0, 0, 0, 0, 0
0, 0, 48, 0, 0, 0, 1, 1, 1, 1, 11, 4, 11, 6, 5, 9, 14, 18, 27, 21, 33, 25, 33, 31, 33, 40, 22, 32, 39, 33, 31, 38, 31, 24, 31, 33, 34, 31, 30, 27, 21, 21, 14, 11, 8, 7, 0, 0, 0, 0, 0, 0, 0, 0, 0, 0, 0, 0, 0, 0, 0, 0, 0, 0, 0, 0, 0, 0, 0, 0, 0, 0, 0, 0, 0, 0, 0, 0, 0, 0, 0, 0, 0, 0, 0, 0, 0, 0, 0, 0, 0, 0, 0, 0, 0, 0, 0, 0, 0, 0, 0, 0, 0, 0, 0, 0
0, 0, 49, 0, 0, 0, 0, 0, 0, 1, 5, 2, 0, 5, 3, 5, 14, 8, 21, 20, 24, 20, 31, 23, 24, 33, 30, 27, 47, 25, 35, 42, 31, 24, 25, 34, 21, 18, 20, 19, 15, 11, 19, 9, 8, 2, 0, 0, 0, 0, 0, 0, 0, 0, 0, 0, 0, 0, 0, 0, 0, 0, 0, 0, 0, 0, 0, 0, 0, 0, 0, 0, 0, 0, 0, 0, 0, 0, 0, 0, 0, 0, 0, 0, 0, 0, 0, 0, 0, 0, 0, 0, 0, 0, 0, 0, 0, 0, 0, 0, 0, 0, 0, 0, 0, 0
0, 0, 50, 0, 0, 0, 0, 0, 1, 0, 4, 1, 3, 5, 9, 8, 10, 8, 14, 13, 29, 26, 29, 27, 22, 35, 28, 30, 38, 27, 30, 40, 33, 31, 30, 20, 19, 17, 14, 33, 17, 11, 7, 14, 6, 1, 0, 0, 0, 0, 0, 0, 0, 0, 0, 0, 0, 0, 0, 0, 0, 0, 0, 0, 0, 0, 0, 0, 0, 0, 0, 0, 0, 0, 0, 0, 0, 0, 0, 0, 0, 0, 0, 0, 0, 0, 0, 0, 0, 0, 0, 0, 0, 0, 0, 0, 0, 0, 0, 0, 0, 0, 0, 0, 0, 0
0, 0, 51, 3, 0, 0, 0, 0, 2, 1, 10, 7, 7, 8, 10, 14, 18, 14, 10, 23, 34, 26, 49, 41, 36, 33, 36, 34, 56, 27, 41, 36, 39, 40, 34, 36, 27, 27, 29, 18, 21, 13, 15, 18, 11, 4, 1, 0, 0, 0, 0, 0, 0, 0, 0, 0, 0, 0, 0, 0, 0, 0, 0, 0, 0, 0, 0, 0, 0, 0, 0, 0, 0, 0, 0, 0, 0, 0, 0, 0, 0, 0, 0, 0, 0, 0, 0, 0, 0, 0, 0, 0, 0, 0, 0, 0, 0, 0, 0, 0, 0, 0, 0, 0, 0, 0
0, 0, 52, 0, 0, 2, 1, 1, 3, 6, 10, 5, 10, 13, 17, 22, 26, 20, 36, 50, 41, 32, 46, 47, 38, 45, 37, 36, 36, 42, 52, 36, 39, 39, 47, 35, 32, 26, 28, 28, 23, 15, 9, 15, 14, 6, 1, 0, 0, 0, 0, 0, 0, 0, 0, 0, 0, 0, 0, 0, 0, 0, 0, 0, 0, 0, 0, 0, 0, 0, 0, 0, 0, 0, 0, 0, 0, 0, 0, 0, 0, 0, 0, 0, 0, 0, 0, 0, 0, 0, 0, 0, 0, 0, 0, 0, 0, 0, 0, 0, 0, 0, 0, 0, 0, 0
0, 0, 53, 0, 1, 0, 1, 10, 4, 9, 18, 12, 23, 27, 33, 26, 42, 32, 42, 58, 60, 46, 47, 73, 68, 68, 41, 46, 53, 65, 47, 48, 50, 51, 34, 43, 47, 28, 31, 28, 29, 25, 23, 24, 9, 6, 0, 0, 0, 0, 0, 0, 0, 0, 0, 0, 0, 0, 0, 0, 0, 0, 0, 0, 0, 0, 0, 0, 0, 0, 0, 0, 0, 0, 0, 0, 0, 0, 0, 0, 0, 0, 0, 0, 0, 0, 0, 0, 0, 0, 0, 0, 0, 0, 0, 0, 0, 0, 0, 0, 0, 0, 0, 0, 0, 0
0, 0, 54, 0, 2, 5, 2, 5, 9, 13, 36, 25, 38, 38, 48, 48, 56, 48, 72, 85, 80, 82, 78, 68, 76, 80, 99, 84, 90, 74, 78, 66, 61, 61, 50, 50, 65, 51, 46, 48, 34, 40, 22, 22, 23, 6, 1, 0, 0, 0, 0, 0, 0, 0, 0, 0, 0, 0, 0, 0, 0, 0, 0, 0, 0, 0, 0, 0, 0, 0, 0, 0, 0, 0, 0, 0, 0, 0, 0, 0, 0, 0, 0, 0, 0, 0, 0, 0, 0, 0, 0, 0, 0, 0, 0, 0, 0, 0, 0, 0, 0, 0, 0, 0, 0, 0
0, 0, 55, 0, 1, 0, 5, 5, 16, 24, 42, 43, 50, 53, 70, 84, 98, 81, 108, 104, 95, 116, 143, 112, 103, 98, 105, 91, 90, 105, 79, 112, 98, 77, 80, 85, 59, 50, 70, 56, 48, 51, 31, 32, 23, 13, 0, 0, 0, 0, 0, 0, 0, 0, 0, 0, 0, 0, 0, 0, 0, 0, 0, 0, 0, 0, 0, 0, 0, 0, 0, 0, 0, 0, 0, 0, 0, 0, 0, 0, 0, 0, 0, 0, 0, 0, 0, 0, 0, 0, 0, 0, 0, 0, 0, 0, 0, 0, 0, 0, 0, 0, 0, 0, 0, 0
0, 0, 56, 0, 2, 9, 6, 15, 18, 40, 55, 47, 66, 66, 109, 110, 108, 115, 132, 161, 152, 151, 159, 165, 149, 150, 136, 134, 128, 133, 118, 134, 103, 106, 88, 102, 99, 93, 71, 55, 66, 41, 39, 40, 20, 9, 0, 0, 0, 0, 0, 0, 0, 0, 0, 0, 0, 0, 0, 0, 0, 0, 0, 0, 0, 0, 0, 0, 0, 0, 0, 0, 0, 0, 0, 0, 0, 0, 0, 0, 0, 0, 0, 0, 0, 0, 0, 0, 0, 0, 0, 0, 0, 0, 0, 0, 0, 0, 0, 0, 0, 0, 0, 0, 0, 0
0, 0, 57, 2, 5, 6, 9, 15, 30, 56, 75, 53, 86, 103, 137, 143, 155, 158, 166, 190, 197, 162, 190, 192, 155, 192, 152, 166, 176, 164, 159, 137, 132, 142, 116, 99, 99, 101, 77, 78, 77, 67, 55, 45, 32, 20, 0, 0, 0, 0, 0, 0, 0, 0, 0, 0, 0, 0, 0, 0, 0, 0, 0, 0, 0, 0, 0, 0, 0, 0, 0, 0, 0, 0, 0, 0, 0, 0, 0, 0, 0, 0, 0, 0, 0, 0, 0, 0, 0, 0, 0, 0, 0, 0, 0, 0, 0, 0, 0, 0, 0, 0, 0, 0, 0, 0
0, 0, 58, 0, 3, 8, 8, 22, 27, 53, 79, 73, 113, 131, 153, 174, 187, 205, 218, 232, 223, 240, 262, 252, 217, 220, 267, 206, 187, 224, 169, 171, 165, 160, 141, 146, 111, 97, 100, 117, 90, 74, 64, 51, 37, 21, 0, 0, 0, 0, 0, 0, 0, 0, 0, 0, 0, 0, 0, 0, 0, 0, 0, 0, 0, 0, 0, 0, 0, 0, 0, 0, 0, 0, 0, 0, 0, 0, 0, 0, 0, 0, 0, 0, 0, 0, 0, 0, 0, 0, 0, 0, 0, 0, 0, 0, 0, 0, 0, 0, 0, 0, 0, 0, 0, 0
0, 0, 59, 3, 3, 4, 12, 36, 38, 55, 123, 102, 127, 124, 160, 201, 186, 218, 213, 256, 228, 237, 278, 252, 243, 248, 225, 222, 228, 205, 188, 191, 176, 165, 137, 149, 148, 125, 107, 113, 100, 75, 56, 64, 50, 19, 1, 0, 0, 0, 0, 0, 0, 0, 0, 0, 0, 0, 0, 0, 0, 0, 0, 0, 0, 0, 0, 0, 0, 0, 0, 0, 0, 0, 0, 0, 0, 0, 0, 0, 0, 0, 0, 0, 0, 0, 0, 0, 0, 0, 0, 0, 0, 0, 0, 0, 0, 0, 0, 0, 0, 0, 0, 0, 0, 0
0, 0, 60, 0, 8, 11, 16, 32, 32, 68, 130, 79, 107, 139, 176, 191, 200, 226, 221, 227, 253, 245, 245, 233, 238, 239, 239, 278, 197, 235, 195, 205, 158, 177, 182, 147, 137, 129, 100, 89, 97, 86, 71, 51, 47, 19, 2, 0, 0, 0, 0, 0, 0, 0, 0, 0, 0, 0, 0, 0, 0, 0, 0, 0, 0, 0, 0, 0, 0, 0, 0, 0, 0, 0, 0, 0, 0, 0, 0, 0, 0, 0, 0, 0, 0, 0, 0, 0, 0, 0, 0, 0, 0, 0, 0, 0, 0, 0, 0, 0, 0, 0, 0, 0, 0, 0
0, 0, 61, 4, 3, 7, 9, 30, 45, 64, 142, 101, 114, 141, 180, 169, 212, 230, 241, 229, 271, 271, 268, 238, 232, 220, 224, 218, 205, 212, 213, 185, 176, 169, 162, 180, 120, 145, 119, 118, 81, 69, 72, 57, 47, 15, 1, 0, 0, 0, 0, 0, 0, 0, 0, 0, 0, 0, 0, 0, 0, 0, 0, 0, 0, 0, 0, 0, 0, 0, 0, 0, 0, 0, 0, 0, 0, 0, 0, 0, 0, 0, 0, 0, 0, 0, 0, 0, 0, 0, 0, 0, 0, 0, 0, 0, 0, 0, 0, 0, 0, 0, 0, 0, 0, 0
0, 0, 62, 4, 4, 13, 14, 32, 52, 64, 111, 91, 113, 138, 158, 208, 211, 187, 216, 229, 247, 245, 246, 267, 247, 230, 210, 203, 212, 210, 193, 219, 168, 143, 162, 153, 138, 136, 116, 97, 114, 77, 52, 41, 51, 19, 0, 0, 0, 0, 0, 0, 0, 0, 0, 0, 0, 0, 0, 0, 0, 0, 0, 0, 0, 0, 0, 0, 0, 0, 0, 0, 0, 0, 0, 0, 0, 0, 0, 0, 0, 0, 0, 0, 0, 0, 0, 0, 0, 0, 0, 0, 0, 0, 0, 0, 0, 0, 0, 0, 0, 0, 0, 0, 0, 0
0, 0, 63, 4, 6, 11, 12, 30, 32, 67, 109, 92, 102, 146, 176, 224, 187, 205, 222, 266, 237, 288, 246, 226, 231, 221, 271, 222, 200, 226, 203, 191, 175, 150, 189, 137, 136, 155, 124, 100, 86, 87, 64, 67, 45, 27, 1, 0, 0, 0, 0, 0, 0, 0, 0, 0, 0, 0, 0, 0, 0, 0, 0, 0, 0, 0, 0, 0, 0, 0, 0, 0, 0, 0, 0, 0, 0, 0, 0, 0, 0, 0, 0, 0, 0, 0, 0, 0, 0, 0, 0, 0, 0, 0, 0, 0, 0, 0, 0, 0, 0, 0, 0, 0, 0, 0
0, 0, 64, 2, 5, 8, 12, 25, 37, 57, 88, 95, 120, 144, 142, 201, 187, 229, 231, 242, 256, 214, 268, 265, 279, 248, 239, 235, 206, 213, 194, 191, 203, 175, 176, 154, 144, 149, 137, 94, 83, 93, 65, 65, 38, 24, 3, 0, 0, 0, 0, 0, 0, 0, 0, 0, 0, 0, 0, 0, 0, 0, 0, 0, 0, 0, 0, 0, 0, 0, 0, 0, 0, 0, 0, 0, 0, 0, 0, 0, 0, 0, 0, 0, 0, 0, 0, 0, 0, 0, 0, 0, 0, 0, 0, 0, 0, 0, 0, 0, 0, 0, 0, 0, 0, 0
0, 0, 65, 1, 1, 11, 12, 27, 45, 43, 103, 92, 117, 145, 147, 196, 220, 211, 238, 236, 254, 219, 241, 274, 246, 250, 222, 224, 230, 225, 216, 211, 188, 161, 185, 142, 150, 117, 106, 95, 92, 84, 64, 51, 42, 17, 1, 0, 0, 0, 0, 0, 0, 0, 0, 0, 0, 0, 0, 0, 0, 0, 0, 0, 0, 0, 0, 0, 0, 0, 0, 0, 0, 0, 0, 0, 0, 0, 0, 0, 0, 0, 0, 0, 0, 0, 0, 0, 0, 0, 0, 0, 0, 0, 0, 0, 0, 0, 0, 0, 0, 0, 0, 0, 0, 0
0, 0, 66, 3, 2, 6, 11, 21, 40, 46, 122, 103, 100, 140, 175, 168, 233, 205, 225, 230, 233, 253, 251, 226, 257, 250, 244, 204, 219, 192, 204, 202, 174, 146, 154, 153, 151, 111, 120, 109, 78, 86, 67, 60, 34, 20, 1, 0, 0, 0, 0, 0, 0, 0, 0, 0, 0, 0, 0, 0, 0, 0, 0, 0, 0, 0, 0, 0, 0, 0, 0, 0, 0, 0, 0, 0, 0, 0, 0, 0, 0, 0, 0, 0, 0, 0, 0, 0, 0, 0, 0, 0, 0, 0, 0, 0, 0, 0, 0, 0, 0, 0, 0, 0, 0, 0
0, 0, 67, 4, 4, 11, 14, 23, 48, 63, 102, 89, 108, 146, 169, 188, 184, 237, 238, 249, 217, 208, 255, 226, 254, 244, 242, 229, 222, 215, 167, 188, 181, 156, 150, 152, 139, 137, 112, 105, 98, 70, 74, 52, 43, 24, 2, 0, 0, 0, 0, 0, 0, 0, 0, 0, 0, 0, 0, 0, 0, 0, 0, 0, 0, 0, 0, 0, 0, 0, 0, 0, 0, 0, 0, 0, 0, 0, 0, 0, 0, 0, 0, 0, 0, 0, 0, 0, 0, 0, 0, 0, 0, 0, 0, 0, 0, 0, 0, 0, 0, 0, 0, 0, 0, 0
0, 0, 68, 3, 5, 7, 8, 17, 45, 61, 109, 84, 108, 132, 157, 214, 204, 198, 235, 264, 217, 226, 276, 234, 290, 261, 224, 214, 215, 173, 171, 200, 202, 156, 150, 149, 132, 107, 99, 97, 85, 77, 61, 42, 29, 21, 1, 0, 0, 0, 0, 0, 0, 0, 0, 0, 0, 0, 0, 0, 0, 0, 0, 0, 0, 0, 0, 0, 0, 0, 0, 0, 0, 0, 0, 0, 0, 0, 0, 0, 0, 0, 0, 0, 0, 0, 0, 0, 0, 0, 0, 0, 0, 0, 0, 0, 0, 0, 0, 0, 0, 0, 0, 0, 0, 0
0, 0, 69, 10, 4, 4, 15, 24, 40, 39, 106, 84, 122, 156, 178, 201, 204, 210, 204, 216, 265, 238, 243, 260, 240, 239, 258, 218, 215, 189, 193, 189, 185, 195, 155, 125, 142, 133, 97, 120, 86, 69, 51, 55, 41, 19, 1, 0, 0, 0, 0, 0, 0, 0, 0, 0, 0, 0, 0, 0, 0, 0, 0, 0, 0, 0, 0, 0, 0, 0, 0, 0, 0, 0, 0, 0, 0, 0, 0, 0, 0, 0, 0, 0, 0, 0, 0, 0, 0, 0, 0, 0, 0, 0, 0, 0, 0, 0, 0, 0, 0, 0, 0, 0, 0, 0
0, 0, 70, 6, 5, 5, 12, 22, 33, 55, 117, 105, 119, 146, 176, 224, 234, 216, 251, 250, 232, 255, 258, 243, 216, 230, 230, 223, 233, 219, 181, 178, 163, 173, 163, 170, 134, 150, 115, 101, 109, 73, 63, 42, 34, 21, 3, 0, 0, 0, 0, 0, 0, 0, 0, 0, 0, 0, 0, 0, 0, 0, 0, 0, 0, 0, 0, 0, 0, 0, 0, 0, 0, 0, 0, 0, 0, 0, 0, 0, 0, 0, 0, 0, 0, 0, 0, 0, 0, 0, 0, 0, 0, 0, 0, 0, 0, 0, 0, 0, 0, 0, 0, 0, 0, 0
0, 0, 71, 2, 1, 5, 14, 18, 44, 54, 126, 82, 123, 159, 157, 186, 237, 203, 241, 228, 231, 263, 244, 254, 247, 227, 227, 230, 211, 218, 207, 197, 209, 152, 163, 173, 141, 137, 127, 107, 98, 74, 87, 52, 40, 16, 0, 0, 0, 0, 0, 0, 0, 0, 0, 0, 0, 0, 0, 0, 0, 0, 0, 0, 0, 0, 0, 0, 0, 0, 0, 0, 0, 0, 0, 0, 0, 0, 0, 0, 0, 0, 0, 0, 0, 0, 0, 0, 0, 0, 0, 0, 0, 0, 0, 0, 0, 0, 0, 0, 0, 0, 0, 0, 0, 0
0, 0, 72, 3, 5, 7, 12, 20, 44, 55, 110, 85, 90, 164, 170, 216, 186, 182, 220, 236, 241, 245, 287, 260, 223, 249, 208, 233, 244, 210, 210, 148, 168, 164, 146, 164, 124, 110, 128, 104, 74, 90, 81, 61, 37, 28, 0, 0, 0, 0, 0, 0, 0, 0, 0, 0, 0, 0, 0, 0, 0, 0, 0, 0, 0, 0, 0, 0, 0, 0, 0, 0, 0, 0, 0, 0, 0, 0, 0, 0, 0, 0, 0, 0, 0, 0, 0, 0, 0, 0, 0, 0, 0, 0, 0, 0, 0, 0, 0, 0, 0, 0, 0, 0, 0, 0
0, 0, 73, 0, 1, 12, 25, 32, 38, 59, 115, 76, 113, 129, 184, 235, 197, 234, 251, 261, 265, 220, 237, 244, 246, 239, 207, 235, 230, 223, 221, 182, 170, 173, 142, 139, 157, 129, 108, 125, 69, 64, 77, 60, 39, 25, 1, 0, 0, 0, 0, 0, 0, 0, 0, 0, 0, 0, 0, 0, 0, 0, 0, 0, 0, 0, 0, 0, 0, 0, 0, 0, 0, 0, 0, 0, 0, 0, 0, 0, 0, 0, 0, 0, 0, 0, 0, 0, 0, 0, 0, 0, 0, 0, 0, 0, 0, 0, 0, 0, 0, 0, 0, 0, 0, 0
0, 0, 74, 1, 5, 9, 13, 35, 52, 58, 116, 82, 118, 140, 177, 191, 184, 201, 249, 244, 239, 245, 239, 221, 246, 209, 251, 255, 240, 234, 190, 187, 200, 177, 150, 150, 137, 123, 119, 105, 72, 83, 75, 62, 49, 16, 1, 0, 0, 0, 0, 0, 0, 0, 0, 0, 0, 0, 0, 0, 0, 0, 0, 0, 0, 0, 0, 0, 0, 0, 0, 0, 0, 0, 0, 0, 0, 0, 0, 0, 0, 0, 0, 0, 0, 0, 0, 0, 0, 0, 0, 0, 0, 0, 0, 0, 0, 0, 0, 0, 0, 0, 0, 0, 0, 0
0, 0, 75, 4, 2, 4, 14, 21, 39, 81, 112, 82, 109, 145, 175, 225, 189, 228, 227, 255, 258, 239, 245, 250, 249, 249, 241, 227, 240, 202, 218, 168, 169, 165, 150, 135, 148, 105, 133, 110, 93, 91, 81, 60, 38, 20, 3, 0, 0, 0, 0, 0, 0, 0, 0, 0, 0, 0, 0, 0, 0, 0, 0, 0, 0, 0, 0, 0, 0, 0, 0, 0, 0, 0, 0, 0, 0, 0, 0, 0, 0, 0, 0, 0, 0, 0, 0, 0, 0, 0, 0, 0, 0, 0, 0, 0, 0, 0, 0, 0, 0, 0, 0, 0, 0, 0
0, 0, 76, 1, 3, 9, 11, 25, 39, 45, 112, 92, 112, 148, 180, 191, 210, 235, 226, 246, 229, 258, 260, 268, 262, 260, 227, 224, 226, 221, 228, 160, 153, 179, 170, 159, 145, 141, 124, 101, 85, 70, 68, 49, 47, 17, 1, 0, 0, 0, 0, 0, 0, 0, 0, 0, 0, 0, 0, 0, 0, 0, 0, 0, 0, 0, 0, 0, 0, 0, 0, 0, 0, 0, 0, 0, 0, 0, 0, 0, 0, 0, 0, 0, 0, 0, 0, 0, 0, 0, 0, 0, 0, 0, 0, 0, 0, 0, 0, 0, 0, 0, 0, 0, 0, 0
0, 0, 77, 0, 4, 9, 14, 27, 40, 56, 120, 97, 105, 124, 173, 192, 174, 208, 219, 233, 255, 265, 251, 262, 229, 243, 239, 251, 192, 196, 190, 195, 186, 157, 159, 144, 136, 112, 137, 97, 102, 66, 59, 52, 41, 14, 0, 0, 0, 0, 0, 0, 0, 0, 0, 0, 0, 0, 0, 0, 0, 0, 0, 0, 0, 0, 0, 0, 0, 0, 0, 0, 0, 0, 0, 0, 0, 0, 0, 0, 0, 0, 0, 0, 0, 0, 0, 0, 0, 0, 0, 0, 0, 0, 0, 0, 0, 0, 0, 0, 0, 0, 0, 0, 0, 0
