# TOPAS Version: 3.1.p3
# Parameter File: REDLEN_small_phantom_mc_basic_4cm.txt
# Results for scorer PhantomDose
# Scored on surface: CdTeCrystal1/YPlusSurface
# X in 100 bins of 0.03332 cm
# Y in 1 bin  of 0.4 cm
# Z in 100 bins of 0.0375 cm
# SurfaceTrackCount : Sum   
# Binned by incident track energy in 100 bins of 0.00104 MeV from 0.016 MeV to 0.12 MeV
# First bin is underflow, next to last bin is overflow, last bin is for case of no incident track.
0, 0, 0, 2, 0, 0, 0, 0, 1, 0, 0, 1, 1, 0, 0, 1, 1, 1, 3, 1, 1, 5, 3, 1, 2, 4, 1, 1, 2, 3, 2, 5, 3, 1, 2, 1, 2, 3, 3, 0, 0, 0, 0, 0, 0, 0, 0, 0, 0, 0, 0, 0, 0, 0, 0, 0, 0, 0, 0, 0, 0, 0, 0, 0, 0, 0, 0, 0, 0, 0, 0, 0, 0, 0, 0, 0, 0, 0, 0, 0, 0, 0, 0, 0, 0, 0, 0, 0, 0, 0, 0, 0, 0, 0, 0, 0, 0, 0, 0, 0, 0, 0, 0, 0, 0, 0
0, 0, 1, 0, 0, 0, 0, 0, 0, 1, 2, 1, 0, 0, 0, 2, 1, 2, 2, 1, 0, 4, 7, 1, 1, 3, 2, 4, 5, 6, 1, 3, 0, 1, 1, 6, 1, 1, 3, 1, 1, 2, 0, 1, 0, 0, 0, 0, 0, 0, 0, 0, 0, 0, 0, 0, 0, 0, 0, 0, 0, 0, 0, 0, 0, 0, 0, 0, 0, 0, 0, 0, 0, 0, 0, 0, 0, 0, 0, 0, 0, 0, 0, 0, 0, 0, 0, 0, 0, 0, 0, 0, 0, 0, 0, 0, 0, 0, 0, 0, 0, 0, 0, 0, 0, 0
0, 0, 2, 2, 0, 0, 0, 0, 0, 0, 1, 0, 1, 2, 1, 3, 1, 2, 4, 2, 3, 3, 2, 2, 0, 3, 3, 8, 1, 1, 3, 3, 2, 2, 0, 2, 1, 0, 2, 4, 1, 1, 0, 0, 0, 0, 0, 0, 0, 0, 0, 0, 0, 0, 0, 0, 0, 0, 0, 0, 0, 0, 0, 0, 0, 0, 0, 0, 0, 0, 0, 0, 0, 0, 0, 0, 0, 0, 0, 0, 0, 0, 0, 0, 0, 0, 0, 0, 0, 0, 0, 0, 0, 0, 0, 0, 0, 0, 0, 0, 0, 0, 0, 0, 0, 0
0, 0, 3, 0, 0, 0, 0, 0, 1, 0, 1, 1, 0, 0, 4, 5, 1, 2, 0, 5, 4, 5, 2, 3, 0, 2, 3, 0, 5, 1, 4, 3, 3, 4, 0, 4, 1, 1, 1, 1, 1, 0, 0, 0, 0, 0, 0, 0, 0, 0, 0, 0, 0, 0, 0, 0, 0, 0, 0, 0, 0, 0, 0, 0, 0, 0, 0, 0, 0, 0, 0, 0, 0, 0, 0, 0, 0, 0, 0, 0, 0, 0, 0, 0, 0, 0, 0, 0, 0, 0, 0, 0, 0, 0, 0, 0, 0, 0, 0, 0, 0, 0, 0, 0, 0, 0
0, 0, 4, 0, 1, 0, 0, 0, 0, 1, 0, 1, 0, 0, 0, 2, 0, 2, 5, 1, 5, 1, 2, 3, 3, 0, 3, 0, 5, 0, 2, 1, 3, 3, 1, 2, 1, 1, 0, 1, 0, 0, 1, 0, 0, 0, 0, 0, 0, 0, 0, 0, 0, 0, 0, 0, 0, 0, 0, 0, 0, 0, 0, 0, 0, 0, 0, 0, 0, 0, 0, 0, 0, 0, 0, 0, 0, 0, 0, 0, 0, 0, 0, 0, 0, 0, 0, 0, 0, 0, 0, 0, 0, 0, 0, 0, 0, 0, 0, 0, 0, 0, 0, 0, 0, 0
0, 0, 5, 0, 1, 2, 7, 6, 13, 20, 51, 33, 49, 65, 75, 95, 90, 92, 94, 86, 121, 127, 103, 99, 102, 108, 100, 98, 84, 90, 82, 83, 93, 73, 64, 61, 54, 59, 54, 41, 42, 43, 32, 27, 15, 14, 1, 0, 0, 0, 0, 0, 0, 0, 0, 0, 0, 0, 0, 0, 0, 0, 0, 0, 0, 0, 0, 0, 0, 0, 0, 0, 0, 0, 0, 0, 0, 0, 0, 0, 0, 0, 0, 0, 0, 0, 0, 0, 0, 0, 0, 0, 0, 0, 0, 0, 0, 0, 0, 0, 0, 0, 0, 0, 0, 0
0, 0, 6, 3, 4, 11, 17, 28, 29, 54, 105, 97, 120, 160, 153, 196, 158, 228, 248, 250, 223, 249, 247, 219, 257, 215, 236, 250, 244, 193, 190, 189, 169, 153, 187, 125, 153, 125, 105, 96, 103, 94, 70, 75, 30, 19, 1, 0, 0, 0, 0, 0, 0, 0, 0, 0, 0, 0, 0, 0, 0, 0, 0, 0, 0, 0, 0, 0, 0, 0, 0, 0, 0, 0, 0, 0, 0, 0, 0, 0, 0, 0, 0, 0, 0, 0, 0, 0, 0, 0, 0, 0, 0, 0, 0, 0, 0, 0, 0, 0, 0, 0, 0, 0, 0, 0
0, 0, 7, 5, 2, 7, 18, 15, 45, 50, 98, 116, 101, 150, 201, 190, 197, 223, 225, 267, 264, 263, 254, 257, 257, 258, 265, 225, 233, 201, 215, 201, 186, 167, 167, 142, 135, 114, 128, 111, 94, 82, 59, 45, 34, 22, 0, 0, 0, 0, 0, 0, 0, 0, 0, 0, 0, 0, 0, 0, 0, 0, 0, 0, 0, 0, 0, 0, 0, 0, 0, 0, 0, 0, 0, 0, 0, 0, 0, 0, 0, 0, 0, 0, 0, 0, 0, 0, 0, 0, 0, 0, 0, 0, 0, 0, 0, 0, 0, 0, 0, 0, 0, 0, 0, 0
0, 0, 8, 19, 4, 11, 17, 30, 41, 48, 122, 102, 117, 147, 173, 195, 172, 220, 221, 222, 256, 233, 242, 242, 245, 240, 254, 194, 219, 227, 215, 168, 174, 171, 145, 177, 143, 123, 120, 118, 94, 91, 69, 42, 24, 24, 1, 0, 0, 0, 0, 0, 0, 0, 0, 0, 0, 0, 0, 0, 0, 0, 0, 0, 0, 0, 0, 0, 0, 0, 0, 0, 0, 0, 0, 0, 0, 0, 0, 0, 0, 0, 0, 0, 0, 0, 0, 0, 0, 0, 0, 0, 0, 0, 0, 0, 0, 0, 0, 0, 0, 0, 0, 0, 0, 0
0, 0, 9, 2, 5, 4, 16, 32, 31, 51, 118, 91, 113, 136, 188, 224, 172, 201, 228, 232, 234, 253, 259, 257, 226, 198, 217, 239, 234, 173, 199, 183, 170, 161, 159, 130, 156, 118, 114, 96, 75, 83, 72, 59, 46, 19, 0, 0, 0, 0, 0, 0, 0, 0, 0, 0, 0, 0, 0, 0, 0, 0, 0, 0, 0, 0, 0, 0, 0, 0, 0, 0, 0, 0, 0, 0, 0, 0, 0, 0, 0, 0, 0, 0, 0, 0, 0, 0, 0, 0, 0, 0, 0, 0, 0, 0, 0, 0, 0, 0, 0, 0, 0, 0, 0, 0
0, 0, 10, 3, 8, 8, 15, 27, 41, 51, 111, 87, 122, 129, 167, 194, 193, 204, 230, 265, 239, 261, 269, 247, 223, 269, 219, 245, 201, 207, 209, 190, 169, 154, 132, 145, 125, 140, 130, 102, 88, 94, 100, 54, 35, 17, 2, 0, 0, 0, 0, 0, 0, 0, 0, 0, 0, 0, 0, 0, 0, 0, 0, 0, 0, 0, 0, 0, 0, 0, 0, 0, 0, 0, 0, 0, 0, 0, 0, 0, 0, 0, 0, 0, 0, 0, 0, 0, 0, 0, 0, 0, 0, 0, 0, 0, 0, 0, 0, 0, 0, 0, 0, 0, 0, 0
0, 0, 11, 3, 1, 5, 15, 35, 44, 74, 127, 96, 117, 151, 173, 175, 187, 196, 211, 271, 224, 244, 236, 218, 236, 239, 219, 247, 208, 217, 180, 224, 162, 178, 151, 145, 151, 127, 94, 103, 90, 73, 71, 51, 45, 23, 3, 0, 0, 0, 0, 0, 0, 0, 0, 0, 0, 0, 0, 0, 0, 0, 0, 0, 0, 0, 0, 0, 0, 0, 0, 0, 0, 0, 0, 0, 0, 0, 0, 0, 0, 0, 0, 0, 0, 0, 0, 0, 0, 0, 0, 0, 0, 0, 0, 0, 0, 0, 0, 0, 0, 0, 0, 0, 0, 0
0, 0, 12, 0, 6, 11, 27, 28, 33, 57, 120, 101, 125, 147, 162, 189, 177, 234, 214, 214, 250, 264, 261, 236, 237, 201, 214, 218, 196, 204, 188, 199, 152, 181, 176, 139, 139, 123, 109, 95, 92, 72, 65, 61, 49, 15, 0, 0, 0, 0, 0, 0, 0, 0, 0, 0, 0, 0, 0, 0, 0, 0, 0, 0, 0, 0, 0, 0, 0, 0, 0, 0, 0, 0, 0, 0, 0, 0, 0, 0, 0, 0, 0, 0, 0, 0, 0, 0, 0, 0, 0, 0, 0, 0, 0, 0, 0, 0, 0, 0, 0, 0, 0, 0, 0, 0
0, 0, 13, 3, 3, 10, 18, 22, 23, 62, 110, 91, 121, 160, 190, 199, 191, 221, 228, 225, 238, 266, 261, 214, 234, 227, 232, 268, 233, 217, 202, 189, 195, 192, 151, 146, 131, 139, 103, 104, 86, 75, 70, 55, 35, 19, 2, 0, 0, 0, 0, 0, 0, 0, 0, 0, 0, 0, 0, 0, 0, 0, 0, 0, 0, 0, 0, 0, 0, 0, 0, 0, 0, 0, 0, 0, 0, 0, 0, 0, 0, 0, 0, 0, 0, 0, 0, 0, 0, 0, 0, 0, 0, 0, 0, 0, 0, 0, 0, 0, 0, 0, 0, 0, 0, 0
0, 0, 14, 1, 4, 9, 17, 26, 55, 59, 109, 86, 109, 141, 181, 199, 192, 206, 224, 273, 277, 254, 251, 268, 246, 251, 223, 236, 229, 203, 204, 205, 174, 162, 167, 160, 132, 106, 114, 112, 93, 69, 63, 52, 35, 25, 0, 0, 0, 0, 0, 0, 0, 0, 0, 0, 0, 0, 0, 0, 0, 0, 0, 0, 0, 0, 0, 0, 0, 0, 0, 0, 0, 0, 0, 0, 0, 0, 0, 0, 0, 0, 0, 0, 0, 0, 0, 0, 0, 0, 0, 0, 0, 0, 0, 0, 0, 0, 0, 0, 0, 0, 0, 0, 0, 0
0, 0, 15, 1, 5, 8, 14, 25, 41, 55, 109, 85, 105, 150, 177, 191, 196, 210, 223, 230, 250, 276, 252, 226, 236, 243, 247, 212, 214, 215, 185, 189, 209, 169, 143, 149, 129, 119, 126, 134, 88, 84, 73, 55, 39, 26, 2, 0, 0, 0, 0, 0, 0, 0, 0, 0, 0, 0, 0, 0, 0, 0, 0, 0, 0, 0, 0, 0, 0, 0, 0, 0, 0, 0, 0, 0, 0, 0, 0, 0, 0, 0, 0, 0, 0, 0, 0, 0, 0, 0, 0, 0, 0, 0, 0, 0, 0, 0, 0, 0, 0, 0, 0, 0, 0, 0
0, 0, 16, 3, 3, 9, 17, 27, 44, 69, 117, 88, 133, 145, 193, 207, 187, 224, 240, 248, 246, 241, 266, 259, 254, 260, 237, 216, 191, 221, 179, 173, 160, 161, 179, 140, 144, 129, 105, 97, 89, 89, 60, 44, 38, 20, 0, 0, 0, 0, 0, 0, 0, 0, 0, 0, 0, 0, 0, 0, 0, 0, 0, 0, 0, 0, 0, 0, 0, 0, 0, 0, 0, 0, 0, 0, 0, 0, 0, 0, 0, 0, 0, 0, 0, 0, 0, 0, 0, 0, 0, 0, 0, 0, 0, 0, 0, 0, 0, 0, 0, 0, 0, 0, 0, 0
0, 0, 17, 1, 2, 7, 14, 25, 31, 60, 125, 97, 94, 166, 171, 204, 211, 226, 230, 254, 242, 216, 211, 245, 252, 233, 206, 221, 206, 198, 206, 183, 177, 149, 163, 154, 133, 126, 105, 86, 106, 61, 71, 50, 37, 21, 1, 0, 0, 0, 0, 0, 0, 0, 0, 0, 0, 0, 0, 0, 0, 0, 0, 0, 0, 0, 0, 0, 0, 0, 0, 0, 0, 0, 0, 0, 0, 0, 0, 0, 0, 0, 0, 0, 0, 0, 0, 0, 0, 0, 0, 0, 0, 0, 0, 0, 0, 0, 0, 0, 0, 0, 0, 0, 0, 0
0, 0, 18, 3, 1, 8, 20, 24, 41, 61, 114, 72, 114, 153, 163, 188, 208, 230, 222, 246, 264, 252, 240, 246, 218, 251, 262, 207, 202, 218, 212, 226, 192, 155, 152, 159, 127, 128, 128, 117, 97, 63, 79, 42, 34, 23, 1, 0, 0, 0, 0, 0, 0, 0, 0, 0, 0, 0, 0, 0, 0, 0, 0, 0, 0, 0, 0, 0, 0, 0, 0, 0, 0, 0, 0, 0, 0, 0, 0, 0, 0, 0, 0, 0, 0, 0, 0, 0, 0, 0, 0, 0, 0, 0, 0, 0, 0, 0, 0, 0, 0, 0, 0, 0, 0, 0
0, 0, 19, 0, 5, 8, 16, 25, 43, 57, 120, 96, 96, 150, 163, 212, 186, 203, 235, 248, 243, 261, 239, 263, 247, 249, 218, 242, 218, 217, 182, 190, 173, 161, 166, 167, 153, 138, 122, 101, 97, 78, 50, 51, 50, 22, 0, 0, 0, 0, 0, 0, 0, 0, 0, 0, 0, 0, 0, 0, 0, 0, 0, 0, 0, 0, 0, 0, 0, 0, 0, 0, 0, 0, 0, 0, 0, 0, 0, 0, 0, 0, 0, 0, 0, 0, 0, 0, 0, 0, 0, 0, 0, 0, 0, 0, 0, 0, 0, 0, 0, 0, 0, 0, 0, 0
0, 0, 20, 2, 2, 8, 20, 22, 49, 61, 121, 81, 122, 124, 175, 187, 197, 211, 256, 254, 242, 255, 258, 250, 235, 237, 232, 223, 211, 202, 195, 207, 167, 151, 169, 147, 128, 124, 111, 111, 75, 86, 47, 41, 40, 18, 2, 0, 0, 0, 0, 0, 0, 0, 0, 0, 0, 0, 0, 0, 0, 0, 0, 0, 0, 0, 0, 0, 0, 0, 0, 0, 0, 0, 0, 0, 0, 0, 0, 0, 0, 0, 0, 0, 0, 0, 0, 0, 0, 0, 0, 0, 0, 0, 0, 0, 0, 0, 0, 0, 0, 0, 0, 0, 0, 0
0, 0, 21, 0, 7, 9, 17, 23, 43, 52, 115, 102, 98, 128, 153, 190, 213, 213, 218, 235, 274, 266, 267, 247, 241, 232, 234, 234, 231, 186, 218, 189, 168, 143, 137, 134, 132, 127, 113, 107, 74, 76, 83, 48, 47, 24, 1, 0, 0, 0, 0, 0, 0, 0, 0, 0, 0, 0, 0, 0, 0, 0, 0, 0, 0, 0, 0, 0, 0, 0, 0, 0, 0, 0, 0, 0, 0, 0, 0, 0, 0, 0, 0, 0, 0, 0, 0, 0, 0, 0, 0, 0, 0, 0, 0, 0, 0, 0, 0, 0, 0, 0, 0, 0, 0, 0
0, 0, 22, 1, 1, 7, 14, 41, 35, 49, 122, 77, 125, 151, 191, 213, 211, 238, 256, 205, 265, 243, 228, 252, 241, 244, 251, 246, 226, 208, 184, 177, 173, 178, 165, 124, 148, 106, 114, 133, 84, 76, 89, 57, 47, 22, 2, 0, 0, 0, 0, 0, 0, 0, 0, 0, 0, 0, 0, 0, 0, 0, 0, 0, 0, 0, 0, 0, 0, 0, 0, 0, 0, 0, 0, 0, 0, 0, 0, 0, 0, 0, 0, 0, 0, 0, 0, 0, 0, 0, 0, 0, 0, 0, 0, 0, 0, 0, 0, 0, 0, 0, 0, 0, 0, 0
0, 0, 23, 4, 6, 5, 16, 18, 36, 51, 116, 113, 124, 170, 185, 212, 215, 200, 225, 263, 257, 258, 294, 231, 237, 250, 238, 242, 211, 200, 196, 190, 181, 148, 147, 150, 141, 148, 102, 109, 86, 89, 81, 54, 43, 15, 2, 0, 0, 0, 0, 0, 0, 0, 0, 0, 0, 0, 0, 0, 0, 0, 0, 0, 0, 0, 0, 0, 0, 0, 0, 0, 0, 0, 0, 0, 0, 0, 0, 0, 0, 0, 0, 0, 0, 0, 0, 0, 0, 0, 0, 0, 0, 0, 0, 0, 0, 0, 0, 0, 0, 0, 0, 0, 0, 0
0, 0, 24, 3, 1, 8, 18, 19, 31, 57, 119, 88, 129, 143, 172, 192, 217, 185, 232, 230, 275, 254, 244, 256, 245, 215, 250, 228, 239, 186, 224, 199, 168, 165, 153, 153, 141, 124, 130, 95, 84, 81, 69, 48, 38, 13, 2, 0, 0, 0, 0, 0, 0, 0, 0, 0, 0, 0, 0, 0, 0, 0, 0, 0, 0, 0, 0, 0, 0, 0, 0, 0, 0, 0, 0, 0, 0, 0, 0, 0, 0, 0, 0, 0, 0, 0, 0, 0, 0, 0, 0, 0, 0, 0, 0, 0, 0, 0, 0, 0, 0, 0, 0, 0, 0, 0
0, 0, 25, 1, 4, 9, 19, 25, 48, 68, 123, 90, 133, 136, 164, 189, 204, 219, 222, 230, 219, 249, 240, 250, 241, 238, 244, 208, 190, 221, 196, 213, 197, 181, 138, 156, 149, 119, 118, 100, 103, 70, 59, 56, 40, 18, 1, 0, 0, 0, 0, 0, 0, 0, 0, 0, 0, 0, 0, 0, 0, 0, 0, 0, 0, 0, 0, 0, 0, 0, 0, 0, 0, 0, 0, 0, 0, 0, 0, 0, 0, 0, 0, 0, 0, 0, 0, 0, 0, 0, 0, 0, 0, 0, 0, 0, 0, 0, 0, 0, 0, 0, 0, 0, 0, 0
0, 0, 26, 3, 4, 8, 18, 24, 40, 59, 111, 82, 92, 140, 158, 200, 188, 203, 221, 239, 244, 283, 241, 239, 270, 257, 238, 226, 223, 226, 210, 172, 196, 162, 159, 171, 135, 134, 114, 87, 83, 79, 60, 61, 46, 17, 2, 0, 0, 0, 0, 0, 0, 0, 0, 0, 0, 0, 0, 0, 0, 0, 0, 0, 0, 0, 0, 0, 0, 0, 0, 0, 0, 0, 0, 0, 0, 0, 0, 0, 0, 0, 0, 0, 0, 0, 0, 0, 0, 0, 0, 0, 0, 0, 0, 0, 0, 0, 0, 0, 0, 0, 0, 0, 0, 0
0, 0, 27, 4, 3, 9, 11, 29, 44, 56, 112, 96, 106, 139, 165, 199, 197, 205, 223, 238, 253, 271, 258, 209, 258, 230, 212, 218, 235, 229, 222, 203, 177, 198, 175, 160, 144, 138, 91, 69, 99, 72, 51, 46, 44, 22, 1, 0, 0, 0, 0, 0, 0, 0, 0, 0, 0, 0, 0, 0, 0, 0, 0, 0, 0, 0, 0, 0, 0, 0, 0, 0, 0, 0, 0, 0, 0, 0, 0, 0, 0, 0, 0, 0, 0, 0, 0, 0, 0, 0, 0, 0, 0, 0, 0, 0, 0, 0, 0, 0, 0, 0, 0, 0, 0, 0
0, 0, 28, 2, 3, 6, 16, 18, 45, 51, 111, 108, 129, 138, 164, 176, 214, 215, 188, 244, 228, 246, 238, 258, 250, 246, 233, 220, 209, 206, 196, 173, 188, 151, 150, 153, 131, 127, 89, 113, 82, 75, 70, 55, 54, 15, 1, 0, 0, 0, 0, 0, 0, 0, 0, 0, 0, 0, 0, 0, 0, 0, 0, 0, 0, 0, 0, 0, 0, 0, 0, 0, 0, 0, 0, 0, 0, 0, 0, 0, 0, 0, 0, 0, 0, 0, 0, 0, 0, 0, 0, 0, 0, 0, 0, 0, 0, 0, 0, 0, 0, 0, 0, 0, 0, 0
0, 0, 29, 0, 0, 5, 20, 28, 42, 62, 119, 86, 109, 146, 167, 181, 191, 217, 228, 232, 222, 263, 243, 222, 250, 245, 220, 233, 220, 203, 203, 197, 173, 169, 149, 156, 132, 111, 113, 94, 105, 78, 71, 46, 32, 13, 0, 0, 0, 0, 0, 0, 0, 0, 0, 0, 0, 0, 0, 0, 0, 0, 0, 0, 0, 0, 0, 0, 0, 0, 0, 0, 0, 0, 0, 0, 0, 0, 0, 0, 0, 0, 0, 0, 0, 0, 0, 0, 0, 0, 0, 0, 0, 0, 0, 0, 0, 0, 0, 0, 0, 0, 0, 0, 0, 0
0, 0, 30, 2, 2, 7, 20, 19, 39, 55, 117, 89, 133, 149, 220, 198, 188, 201, 236, 263, 243, 221, 246, 234, 238, 245, 251, 211, 216, 241, 188, 204, 177, 148, 146, 137, 145, 129, 94, 122, 89, 79, 63, 51, 33, 20, 2, 0, 0, 0, 0, 0, 0, 0, 0, 0, 0, 0, 0, 0, 0, 0, 0, 0, 0, 0, 0, 0, 0, 0, 0, 0, 0, 0, 0, 0, 0, 0, 0, 0, 0, 0, 0, 0, 0, 0, 0, 0, 0, 0, 0, 0, 0, 0, 0, 0, 0, 0, 0, 0, 0, 0, 0, 0, 0, 0
0, 0, 31, 1, 4, 11, 9, 35, 33, 51, 113, 85, 119, 163, 154, 178, 190, 214, 216, 236, 233, 213, 235, 237, 234, 243, 231, 198, 190, 188, 239, 184, 196, 176, 139, 154, 135, 140, 105, 104, 85, 83, 68, 43, 42, 30, 2, 0, 0, 0, 0, 0, 0, 0, 0, 0, 0, 0, 0, 0, 0, 0, 0, 0, 0, 0, 0, 0, 0, 0, 0, 0, 0, 0, 0, 0, 0, 0, 0, 0, 0, 0, 0, 0, 0, 0, 0, 0, 0, 0, 0, 0, 0, 0, 0, 0, 0, 0, 0, 0, 0, 0, 0, 0, 0, 0
0, 0, 32, 4, 5, 9, 14, 18, 45, 46, 120, 97, 114, 163, 204, 183, 198, 217, 234, 257, 251, 227, 255, 211, 248, 229, 241, 239, 237, 225, 212, 183, 166, 158, 155, 145, 139, 101, 122, 91, 95, 75, 63, 64, 38, 23, 3, 0, 0, 0, 0, 0, 0, 0, 0, 0, 0, 0, 0, 0, 0, 0, 0, 0, 0, 0, 0, 0, 0, 0, 0, 0, 0, 0, 0, 0, 0, 0, 0, 0, 0, 0, 0, 0, 0, 0, 0, 0, 0, 0, 0, 0, 0, 0, 0, 0, 0, 0, 0, 0, 0, 0, 0, 0, 0, 0
0, 0, 33, 0, 3, 7, 14, 41, 39, 58, 120, 80, 107, 161, 166, 190, 167, 218, 230, 237, 256, 242, 251, 250, 248, 216, 208, 210, 236, 228, 175, 209, 204, 172, 155, 131, 147, 113, 130, 80, 108, 66, 59, 56, 44, 22, 0, 0, 0, 0, 0, 0, 0, 0, 0, 0, 0, 0, 0, 0, 0, 0, 0, 0, 0, 0, 0, 0, 0, 0, 0, 0, 0, 0, 0, 0, 0, 0, 0, 0, 0, 0, 0, 0, 0, 0, 0, 0, 0, 0, 0, 0, 0, 0, 0, 0, 0, 0, 0, 0, 0, 0, 0, 0, 0, 0
0, 0, 34, 1, 3, 6, 13, 27, 47, 54, 110, 98, 125, 133, 160, 201, 211, 218, 245, 214, 239, 259, 256, 246, 257, 255, 234, 222, 199, 193, 202, 161, 188, 173, 133, 156, 139, 130, 116, 113, 116, 88, 71, 55, 50, 23, 0, 0, 0, 0, 0, 0, 0, 0, 0, 0, 0, 0, 0, 0, 0, 0, 0, 0, 0, 0, 0, 0, 0, 0, 0, 0, 0, 0, 0, 0, 0, 0, 0, 0, 0, 0, 0, 0, 0, 0, 0, 0, 0, 0, 0, 0, 0, 0, 0, 0, 0, 0, 0, 0, 0, 0, 0, 0, 0, 0
0, 0, 35, 7, 4, 8, 19, 24, 34, 52, 100, 94, 113, 151, 139, 217, 180, 220, 206, 238, 243, 286, 283, 246, 237, 227, 221, 242, 213, 232, 173, 198, 206, 159, 158, 143, 143, 138, 110, 103, 85, 73, 64, 52, 39, 24, 0, 0, 0, 0, 0, 0, 0, 0, 0, 0, 0, 0, 0, 0, 0, 0, 0, 0, 0, 0, 0, 0, 0, 0, 0, 0, 0, 0, 0, 0, 0, 0, 0, 0, 0, 0, 0, 0, 0, 0, 0, 0, 0, 0, 0, 0, 0, 0, 0, 0, 0, 0, 0, 0, 0, 0, 0, 0, 0, 0
0, 0, 36, 0, 5, 3, 18, 32, 39, 55, 131, 104, 119, 134, 154, 199, 200, 207, 236, 260, 209, 291, 257, 245, 242, 240, 276, 250, 220, 232, 226, 178, 195, 156, 174, 115, 148, 144, 107, 85, 92, 86, 59, 49, 42, 33, 1, 0, 0, 0, 0, 0, 0, 0, 0, 0, 0, 0, 0, 0, 0, 0, 0, 0, 0, 0, 0, 0, 0, 0, 0, 0, 0, 0, 0, 0, 0, 0, 0, 0, 0, 0, 0, 0, 0, 0, 0, 0, 0, 0, 0, 0, 0, 0, 0, 0, 0, 0, 0, 0, 0, 0, 0, 0, 0, 0
0, 0, 37, 2, 2, 9, 17, 15, 48, 62, 111, 88, 110, 139, 173, 187, 202, 215, 215, 268, 238, 226, 246, 275, 252, 271, 244, 240, 218, 205, 167, 201, 186, 159, 159, 148, 142, 116, 134, 116, 82, 85, 58, 40, 34, 20, 0, 0, 0, 0, 0, 0, 0, 0, 0, 0, 0, 0, 0, 0, 0, 0, 0, 0, 0, 0, 0, 0, 0, 0, 0, 0, 0, 0, 0, 0, 0, 0, 0, 0, 0, 0, 0, 0, 0, 0, 0, 0, 0, 0, 0, 0, 0, 0, 0, 0, 0, 0, 0, 0, 0, 0, 0, 0, 0, 0
0, 0, 38, 1, 1, 10, 11, 37, 33, 60, 110, 78, 120, 133, 184, 182, 215, 198, 246, 234, 244, 244, 240, 262, 262, 230, 236, 237, 225, 193, 206, 166, 163, 202, 163, 131, 123, 139, 113, 105, 94, 82, 75, 56, 45, 22, 3, 0, 0, 0, 0, 0, 0, 0, 0, 0, 0, 0, 0, 0, 0, 0, 0, 0, 0, 0, 0, 0, 0, 0, 0, 0, 0, 0, 0, 0, 0, 0, 0, 0, 0, 0, 0, 0, 0, 0, 0, 0, 0, 0, 0, 0, 0, 0, 0, 0, 0, 0, 0, 0, 0, 0, 0, 0, 0, 0
0, 0, 39, 7, 3, 9, 18, 29, 36, 66, 111, 95, 107, 160, 178, 206, 188, 192, 227, 245, 260, 267, 267, 250, 240, 237, 213, 209, 239, 223, 208, 184, 174, 162, 155, 126, 121, 123, 118, 101, 99, 68, 62, 67, 38, 22, 3, 0, 0, 0, 0, 0, 0, 0, 0, 0, 0, 0, 0, 0, 0, 0, 0, 0, 0, 0, 0, 0, 0, 0, 0, 0, 0, 0, 0, 0, 0, 0, 0, 0, 0, 0, 0, 0, 0, 0, 0, 0, 0, 0, 0, 0, 0, 0, 0, 0, 0, 0, 0, 0, 0, 0, 0, 0, 0, 0
0, 0, 40, 4, 9, 3, 17, 18, 45, 57, 103, 96, 115, 129, 170, 179, 220, 196, 224, 282, 226, 256, 265, 227, 237, 235, 216, 215, 222, 230, 195, 188, 176, 173, 167, 170, 136, 103, 101, 94, 78, 93, 65, 54, 31, 28, 1, 0, 0, 0, 0, 0, 0, 0, 0, 0, 0, 0, 0, 0, 0, 0, 0, 0, 0, 0, 0, 0, 0, 0, 0, 0, 0, 0, 0, 0, 0, 0, 0, 0, 0, 0, 0, 0, 0, 0, 0, 0, 0, 0, 0, 0, 0, 0, 0, 0, 0, 0, 0, 0, 0, 0, 0, 0, 0, 0
0, 0, 41, 2, 3, 4, 12, 22, 36, 54, 90, 92, 83, 91, 143, 185, 201, 183, 197, 235, 233, 236, 231, 218, 218, 229, 205, 209, 205, 196, 206, 163, 165, 163, 155, 154, 152, 128, 109, 103, 92, 72, 50, 71, 52, 9, 1, 0, 0, 0, 0, 0, 0, 0, 0, 0, 0, 0, 0, 0, 0, 0, 0, 0, 0, 0, 0, 0, 0, 0, 0, 0, 0, 0, 0, 0, 0, 0, 0, 0, 0, 0, 0, 0, 0, 0, 0, 0, 0, 0, 0, 0, 0, 0, 0, 0, 0, 0, 0, 0, 0, 0, 0, 0, 0, 0
0, 0, 42, 2, 1, 6, 15, 23, 17, 55, 60, 72, 98, 114, 124, 158, 145, 141, 153, 177, 216, 179, 174, 192, 210, 176, 167, 167, 155, 169, 138, 155, 155, 109, 103, 144, 89, 104, 89, 71, 73, 48, 50, 36, 35, 18, 2, 0, 0, 0, 0, 0, 0, 0, 0, 0, 0, 0, 0, 0, 0, 0, 0, 0, 0, 0, 0, 0, 0, 0, 0, 0, 0, 0, 0, 0, 0, 0, 0, 0, 0, 0, 0, 0, 0, 0, 0, 0, 0, 0, 0, 0, 0, 0, 0, 0, 0, 0, 0, 0, 0, 0, 0, 0, 0, 0
0, 0, 43, 2, 2, 5, 5, 15, 36, 38, 58, 49, 59, 67, 77, 100, 114, 123, 139, 130, 135, 137, 136, 143, 121, 140, 119, 157, 139, 113, 114, 123, 120, 105, 98, 83, 79, 80, 64, 68, 59, 43, 55, 22, 30, 14, 0, 0, 0, 0, 0, 0, 0, 0, 0, 0, 0, 0, 0, 0, 0, 0, 0, 0, 0, 0, 0, 0, 0, 0, 0, 0, 0, 0, 0, 0, 0, 0, 0, 0, 0, 0, 0, 0, 0, 0, 0, 0, 0, 0, 0, 0, 0, 0, 0, 0, 0, 0, 0, 0, 0, 0, 0, 0, 0, 0
0, 0, 44, 0, 0, 5, 5, 7, 14, 29, 41, 45, 46, 47, 63, 83, 57, 76, 91, 111, 111, 100, 115, 115, 112, 116, 103, 104, 102, 110, 117, 102, 64, 80, 86, 78, 66, 69, 52, 44, 36, 49, 25, 22, 13, 7, 2, 0, 0, 0, 0, 0, 0, 0, 0, 0, 0, 0, 0, 0, 0, 0, 0, 0, 0, 0, 0, 0, 0, 0, 0, 0, 0, 0, 0, 0, 0, 0, 0, 0, 0, 0, 0, 0, 0, 0, 0, 0, 0, 0, 0, 0, 0, 0, 0, 0, 0, 0, 0, 0, 0, 0, 0, 0, 0, 0
0, 0, 45, 0, 0, 2, 4, 4, 9, 16, 23, 18, 37, 41, 45, 71, 57, 48, 52, 68, 84, 88, 87, 93, 69, 80, 93, 81, 72, 78, 83, 86, 67, 44, 57, 49, 48, 49, 50, 49, 34, 27, 22, 28, 8, 9, 0, 0, 0, 0, 0, 0, 0, 0, 0, 0, 0, 0, 0, 0, 0, 0, 0, 0, 0, 0, 0, 0, 0, 0, 0, 0, 0, 0, 0, 0, 0, 0, 0, 0, 0, 0, 0, 0, 0, 0, 0, 0, 0, 0, 0, 0, 0, 0, 0, 0, 0, 0, 0, 0, 0, 0, 0, 0, 0, 0
0, 0, 46, 0, 1, 0, 1, 6, 7, 8, 17, 11, 14, 22, 29, 37, 47, 43, 33, 41, 61, 51, 82, 40, 70, 60, 61, 50, 55, 58, 61, 69, 60, 46, 54, 41, 52, 41, 40, 23, 36, 34, 19, 11, 16, 7, 0, 0, 0, 0, 0, 0, 0, 0, 0, 0, 0, 0, 0, 0, 0, 0, 0, 0, 0, 0, 0, 0, 0, 0, 0, 0, 0, 0, 0, 0, 0, 0, 0, 0, 0, 0, 0, 0, 0, 0, 0, 0, 0, 0, 0, 0, 0, 0, 0, 0, 0, 0, 0, 0, 0, 0, 0, 0, 0, 0
0, 0, 47, 2, 1, 0, 0, 1, 1, 0, 14, 10, 11, 14, 20, 25, 24, 30, 25, 36, 41, 26, 38, 51, 53, 47, 46, 47, 44, 40, 42, 55, 41, 42, 36, 37, 29, 28, 27, 29, 29, 20, 15, 16, 12, 2, 0, 0, 0, 0, 0, 0, 0, 0, 0, 0, 0, 0, 0, 0, 0, 0, 0, 0, 0, 0, 0, 0, 0, 0, 0, 0, 0, 0, 0, 0, 0, 0, 0, 0, 0, 0, 0, 0, 0, 0, 0, 0, 0, 0, 0, 0, 0, 0, 0, 0, 0, 0, 0, 0, 0, 0, 0, 0, 0, 0
0, 0, 48, 0, 0, 0, 0, 0, 1, 3, 11, 3, 4, 6, 11, 19, 18, 17, 16, 27, 30, 30, 30, 23, 23, 37, 58, 38, 33, 38, 30, 39, 45, 36, 27, 43, 25, 19, 31, 25, 28, 17, 9, 10, 5, 7, 0, 0, 0, 0, 0, 0, 0, 0, 0, 0, 0, 0, 0, 0, 0, 0, 0, 0, 0, 0, 0, 0, 0, 0, 0, 0, 0, 0, 0, 0, 0, 0, 0, 0, 0, 0, 0, 0, 0, 0, 0, 0, 0, 0, 0, 0, 0, 0, 0, 0, 0, 0, 0, 0, 0, 0, 0, 0, 0, 0
0, 0, 49, 0, 0, 0, 0, 1, 0, 1, 5, 1, 2, 4, 7, 15, 10, 14, 15, 19, 30, 21, 27, 25, 23, 34, 29, 26, 29, 35, 35, 21, 29, 36, 24, 26, 26, 21, 24, 22, 17, 23, 12, 16, 8, 3, 0, 0, 0, 0, 0, 0, 0, 0, 0, 0, 0, 0, 0, 0, 0, 0, 0, 0, 0, 0, 0, 0, 0, 0, 0, 0, 0, 0, 0, 0, 0, 0, 0, 0, 0, 0, 0, 0, 0, 0, 0, 0, 0, 0, 0, 0, 0, 0, 0, 0, 0, 0, 0, 0, 0, 0, 0, 0, 0, 0
0, 0, 50, 1, 0, 0, 0, 0, 1, 3, 6, 1, 1, 3, 7, 7, 11, 9, 16, 20, 26, 19, 27, 32, 37, 29, 39, 23, 33, 29, 39, 28, 24, 25, 21, 21, 22, 22, 20, 20, 18, 12, 15, 11, 9, 2, 0, 0, 0, 0, 0, 0, 0, 0, 0, 0, 0, 0, 0, 0, 0, 0, 0, 0, 0, 0, 0, 0, 0, 0, 0, 0, 0, 0, 0, 0, 0, 0, 0, 0, 0, 0, 0, 0, 0, 0, 0, 0, 0, 0, 0, 0, 0, 0, 0, 0, 0, 0, 0, 0, 0, 0, 0, 0, 0, 0
0, 0, 51, 2, 0, 0, 0, 3, 0, 0, 6, 6, 9, 4, 13, 11, 22, 13, 22, 28, 25, 28, 30, 29, 39, 26, 27, 34, 36, 33, 39, 38, 28, 29, 32, 26, 35, 24, 29, 18, 22, 13, 27, 13, 11, 5, 0, 0, 0, 0, 0, 0, 0, 0, 0, 0, 0, 0, 0, 0, 0, 0, 0, 0, 0, 0, 0, 0, 0, 0, 0, 0, 0, 0, 0, 0, 0, 0, 0, 0, 0, 0, 0, 0, 0, 0, 0, 0, 0, 0, 0, 0, 0, 0, 0, 0, 0, 0, 0, 0, 0, 0, 0, 0, 0, 0
0, 0, 52, 0, 1, 2, 0, 1, 5, 5, 6, 5, 12, 11, 21, 21, 30, 29, 35, 35, 28, 30, 35, 45, 38, 54, 52, 25, 50, 43, 36, 38, 46, 43, 35, 36, 34, 26, 35, 22, 27, 20, 19, 10, 9, 12, 1, 0, 0, 0, 0, 0, 0, 0, 0, 0, 0, 0, 0, 0, 0, 0, 0, 0, 0, 0, 0, 0, 0, 0, 0, 0, 0, 0, 0, 0, 0, 0, 0, 0, 0, 0, 0, 0, 0, 0, 0, 0, 0, 0, 0, 0, 0, 0, 0, 0, 0, 0, 0, 0, 0, 0, 0, 0, 0, 0
0, 0, 53, 0, 1, 2, 4, 8, 2, 16, 12, 21, 17, 27, 26, 34, 40, 37, 51, 52, 50, 50, 54, 59, 69, 55, 49, 63, 69, 66, 49, 63, 50, 45, 37, 40, 48, 40, 34, 26, 32, 26, 20, 18, 13, 8, 0, 0, 0, 0, 0, 0, 0, 0, 0, 0, 0, 0, 0, 0, 0, 0, 0, 0, 0, 0, 0, 0, 0, 0, 0, 0, 0, 0, 0, 0, 0, 0, 0, 0, 0, 0, 0, 0, 0, 0, 0, 0, 0, 0, 0, 0, 0, 0, 0, 0, 0, 0, 0, 0, 0, 0, 0, 0, 0, 0
0, 0, 54, 2, 0, 3, 2, 8, 9, 19, 23, 30, 33, 32, 56, 55, 57, 87, 62, 69, 75, 71, 84, 88, 88, 89, 72, 74, 72, 70, 64, 62, 80, 83, 76, 55, 55, 68, 40, 35, 47, 20, 43, 19, 10, 9, 1, 0, 0, 0, 0, 0, 0, 0, 0, 0, 0, 0, 0, 0, 0, 0, 0, 0, 0, 0, 0, 0, 0, 0, 0, 0, 0, 0, 0, 0, 0, 0, 0, 0, 0, 0, 0, 0, 0, 0, 0, 0, 0, 0, 0, 0, 0, 0, 0, 0, 0, 0, 0, 0, 0, 0, 0, 0, 0, 0
0, 0, 55, 0, 1, 1, 7, 7, 15, 28, 40, 56, 38, 51, 68, 80, 84, 89, 102, 86, 87, 114, 108, 113, 123, 113, 130, 85, 115, 99, 80, 94, 81, 95, 74, 71, 75, 58, 58, 58, 43, 53, 33, 24, 22, 4, 0, 0, 0, 0, 0, 0, 0, 0, 0, 0, 0, 0, 0, 0, 0, 0, 0, 0, 0, 0, 0, 0, 0, 0, 0, 0, 0, 0, 0, 0, 0, 0, 0, 0, 0, 0, 0, 0, 0, 0, 0, 0, 0, 0, 0, 0, 0, 0, 0, 0, 0, 0, 0, 0, 0, 0, 0, 0, 0, 0
0, 0, 56, 0, 4, 7, 7, 15, 25, 26, 47, 54, 59, 86, 114, 111, 129, 116, 126, 113, 134, 122, 149, 169, 131, 151, 136, 119, 140, 113, 102, 106, 121, 100, 100, 87, 73, 84, 63, 70, 57, 48, 46, 29, 24, 12, 0, 0, 0, 0, 0, 0, 0, 0, 0, 0, 0, 0, 0, 0, 0, 0, 0, 0, 0, 0, 0, 0, 0, 0, 0, 0, 0, 0, 0, 0, 0, 0, 0, 0, 0, 0, 0, 0, 0, 0, 0, 0, 0, 0, 0, 0, 0, 0, 0, 0, 0, 0, 0, 0, 0, 0, 0, 0, 0, 0
0, 0, 57, 0, 1, 7, 9, 15, 38, 43, 81, 59, 81, 108, 115, 155, 147, 151, 156, 172, 190, 188, 174, 171, 196, 202, 174, 157, 181, 163, 154, 142, 122, 133, 121, 115, 114, 108, 89, 72, 65, 66, 49, 44, 28, 14, 1, 0, 0, 0, 0, 0, 0, 0, 0, 0, 0, 0, 0, 0, 0, 0, 0, 0, 0, 0, 0, 0, 0, 0, 0, 0, 0, 0, 0, 0, 0, 0, 0, 0, 0, 0, 0, 0, 0, 0, 0, 0, 0, 0, 0, 0, 0, 0, 0, 0, 0, 0, 0, 0, 0, 0, 0, 0, 0, 0
0, 0, 58, 6, 5, 13, 15, 24, 33, 49, 104, 96, 119, 148, 168, 186, 207, 211, 215, 236, 228, 273, 255, 236, 208, 230, 227, 200, 228, 199, 180, 170, 181, 162, 156, 140, 131, 117, 130, 119, 93, 85, 71, 55, 39, 21, 1, 0, 0, 0, 0, 0, 0, 0, 0, 0, 0, 0, 0, 0, 0, 0, 0, 0, 0, 0, 0, 0, 0, 0, 0, 0, 0, 0, 0, 0, 0, 0, 0, 0, 0, 0, 0, 0, 0, 0, 0, 0, 0, 0, 0, 0, 0, 0, 0, 0, 0, 0, 0, 0, 0, 0, 0, 0, 0, 0
0, 0, 59, 0, 1, 7, 13, 36, 49, 50, 110, 95, 112, 137, 171, 165, 209, 201, 223, 249, 255, 258, 254, 242, 251, 256, 218, 203, 240, 202, 184, 184, 170, 174, 146, 136, 131, 132, 89, 98, 98, 72, 57, 71, 36, 20, 0, 0, 0, 0, 0, 0, 0, 0, 0, 0, 0, 0, 0, 0, 0, 0, 0, 0, 0, 0, 0, 0, 0, 0, 0, 0, 0, 0, 0, 0, 0, 0, 0, 0, 0, 0, 0, 0, 0, 0, 0, 0, 0, 0, 0, 0, 0, 0, 0, 0, 0, 0, 0, 0, 0, 0, 0, 0, 0, 0
0, 0, 60, 0, 3, 6, 18, 33, 45, 68, 109, 113, 103, 130, 163, 186, 196, 240, 248, 245, 211, 239, 277, 233, 251, 250, 231, 243, 222, 221, 180, 170, 152, 155, 143, 145, 145, 126, 111, 112, 109, 101, 65, 54, 39, 13, 0, 0, 0, 0, 0, 0, 0, 0, 0, 0, 0, 0, 0, 0, 0, 0, 0, 0, 0, 0, 0, 0, 0, 0, 0, 0, 0, 0, 0, 0, 0, 0, 0, 0, 0, 0, 0, 0, 0, 0, 0, 0, 0, 0, 0, 0, 0, 0, 0, 0, 0, 0, 0, 0, 0, 0, 0, 0, 0, 0
0, 0, 61, 3, 2, 11, 11, 34, 35, 60, 110, 92, 98, 137, 167, 194, 191, 201, 220, 254, 272, 269, 228, 258, 246, 236, 255, 228, 221, 216, 192, 203, 167, 188, 155, 142, 148, 123, 119, 125, 96, 53, 62, 45, 34, 12, 2, 0, 0, 0, 0, 0, 0, 0, 0, 0, 0, 0, 0, 0, 0, 0, 0, 0, 0, 0, 0, 0, 0, 0, 0, 0, 0, 0, 0, 0, 0, 0, 0, 0, 0, 0, 0, 0, 0, 0, 0, 0, 0, 0, 0, 0, 0, 0, 0, 0, 0, 0, 0, 0, 0, 0, 0, 0, 0, 0
0, 0, 62, 2, 3, 1, 14, 30, 51, 61, 127, 113, 119, 128, 185, 188, 213, 196, 226, 231, 250, 240, 254, 238, 231, 249, 231, 245, 259, 214, 185, 196, 141, 162, 180, 152, 139, 117, 125, 113, 90, 79, 66, 57, 37, 20, 2, 0, 0, 0, 0, 0, 0, 0, 0, 0, 0, 0, 0, 0, 0, 0, 0, 0, 0, 0, 0, 0, 0, 0, 0, 0, 0, 0, 0, 0, 0, 0, 0, 0, 0, 0, 0, 0, 0, 0, 0, 0, 0, 0, 0, 0, 0, 0, 0, 0, 0, 0, 0, 0, 0, 0, 0, 0, 0, 0
0, 0, 63, 6, 3, 4, 21, 20, 42, 53, 104, 94, 134, 147, 178, 166, 217, 210, 234, 255, 240, 266, 229, 234, 270, 227, 246, 200, 185, 258, 183, 211, 177, 189, 150, 162, 166, 127, 127, 119, 85, 96, 71, 48, 44, 22, 2, 0, 0, 0, 0, 0, 0, 0, 0, 0, 0, 0, 0, 0, 0, 0, 0, 0, 0, 0, 0, 0, 0, 0, 0, 0, 0, 0, 0, 0, 0, 0, 0, 0, 0, 0, 0, 0, 0, 0, 0, 0, 0, 0, 0, 0, 0, 0, 0, 0, 0, 0, 0, 0, 0, 0, 0, 0, 0, 0
0, 0, 64, 3, 6, 8, 19, 25, 45, 62, 110, 99, 129, 138, 175, 174, 163, 209, 211, 226, 230, 291, 257, 270, 262, 227, 232, 213, 241, 196, 198, 190, 165, 160, 131, 148, 151, 124, 123, 114, 84, 79, 79, 59, 37, 14, 0, 0, 0, 0, 0, 0, 0, 0, 0, 0, 0, 0, 0, 0, 0, 0, 0, 0, 0, 0, 0, 0, 0, 0, 0, 0, 0, 0, 0, 0, 0, 0, 0, 0, 0, 0, 0, 0, 0, 0, 0, 0, 0, 0, 0, 0, 0, 0, 0, 0, 0, 0, 0, 0, 0, 0, 0, 0, 0, 0
0, 0, 65, 2, 3, 10, 16, 27, 50, 43, 121, 87, 127, 157, 160, 204, 216, 230, 200, 230, 247, 280, 244, 251, 245, 239, 238, 200, 214, 209, 220, 176, 170, 171, 143, 142, 162, 131, 116, 93, 99, 80, 70, 54, 29, 22, 2, 0, 0, 0, 0, 0, 0, 0, 0, 0, 0, 0, 0, 0, 0, 0, 0, 0, 0, 0, 0, 0, 0, 0, 0, 0, 0, 0, 0, 0, 0, 0, 0, 0, 0, 0, 0, 0, 0, 0, 0, 0, 0, 0, 0, 0, 0, 0, 0, 0, 0, 0, 0, 0, 0, 0, 0, 0, 0, 0
0, 0, 66, 4, 2, 8, 11, 26, 42, 67, 112, 87, 102, 132, 173, 204, 211, 208, 228, 223, 270, 244, 256, 288, 279, 226, 209, 240, 243, 240, 208, 190, 190, 185, 160, 154, 138, 120, 126, 105, 81, 79, 57, 48, 49, 21, 1, 0, 0, 0, 0, 0, 0, 0, 0, 0, 0, 0, 0, 0, 0, 0, 0, 0, 0, 0, 0, 0, 0, 0, 0, 0, 0, 0, 0, 0, 0, 0, 0, 0, 0, 0, 0, 0, 0, 0, 0, 0, 0, 0, 0, 0, 0, 0, 0, 0, 0, 0, 0, 0, 0, 0, 0, 0, 0, 0
0, 0, 67, 3, 6, 7, 13, 29, 43, 63, 127, 105, 109, 148, 176, 199, 197, 190, 226, 231, 272, 253, 258, 227, 254, 208, 243, 210, 202, 205, 203, 181, 188, 188, 169, 175, 162, 109, 135, 100, 117, 96, 70, 49, 33, 21, 1, 0, 0, 0, 0, 0, 0, 0, 0, 0, 0, 0, 0, 0, 0, 0, 0, 0, 0, 0, 0, 0, 0, 0, 0, 0, 0, 0, 0, 0, 0, 0, 0, 0, 0, 0, 0, 0, 0, 0, 0, 0, 0, 0, 0, 0, 0, 0, 0, 0, 0, 0, 0, 0, 0, 0, 0, 0, 0, 0
0, 0, 68, 2, 7, 6, 17, 30, 38, 52, 122, 90, 92, 143, 185, 179, 221, 226, 227, 215, 293, 236, 255, 273, 258, 224, 231, 241, 246, 182, 184, 177, 181, 146, 169, 140, 145, 107, 105, 100, 89, 88, 69, 62, 33, 22, 0, 0, 0, 0, 0, 0, 0, 0, 0, 0, 0, 0, 0, 0, 0, 0, 0, 0, 0, 0, 0, 0, 0, 0, 0, 0, 0, 0, 0, 0, 0, 0, 0, 0, 0, 0, 0, 0, 0, 0, 0, 0, 0, 0, 0, 0, 0, 0, 0, 0, 0, 0, 0, 0, 0, 0, 0, 0, 0, 0
0, 0, 69, 1, 1, 8, 27, 26, 32, 50, 131, 93, 114, 152, 161, 195, 206, 203, 224, 260, 254, 243, 233, 228, 254, 223, 199, 222, 193, 217, 202, 205, 197, 161, 161, 148, 143, 141, 137, 131, 103, 91, 69, 52, 41, 13, 4, 0, 0, 0, 0, 0, 0, 0, 0, 0, 0, 0, 0, 0, 0, 0, 0, 0, 0, 0, 0, 0, 0, 0, 0, 0, 0, 0, 0, 0, 0, 0, 0, 0, 0, 0, 0, 0, 0, 0, 0, 0, 0, 0, 0, 0, 0, 0, 0, 0, 0, 0, 0, 0, 0, 0, 0, 0, 0, 0
0, 0, 70, 2, 2, 6, 13, 31, 36, 52, 110, 94, 123, 150, 186, 191, 212, 195, 230, 225, 242, 247, 274, 232, 247, 241, 238, 196, 216, 211, 190, 200, 180, 169, 168, 141, 145, 139, 122, 99, 89, 91, 63, 59, 41, 21, 1, 0, 0, 0, 0, 0, 0, 0, 0, 0, 0, 0, 0, 0, 0, 0, 0, 0, 0, 0, 0, 0, 0, 0, 0, 0, 0, 0, 0, 0, 0, 0, 0, 0, 0, 0, 0, 0, 0, 0, 0, 0, 0, 0, 0, 0, 0, 0, 0, 0, 0, 0, 0, 0, 0, 0, 0, 0, 0, 0
0, 0, 71, 1, 3, 8, 15, 22, 30, 49, 131, 103, 115, 135, 142, 187, 197, 218, 255, 245, 238, 257, 262, 239, 247, 229, 252, 220, 235, 191, 213, 200, 170, 170, 168, 128, 135, 125, 125, 107, 94, 91, 74, 61, 52, 18, 2, 0, 0, 0, 0, 0, 0, 0, 0, 0, 0, 0, 0, 0, 0, 0, 0, 0, 0, 0, 0, 0, 0, 0, 0, 0, 0, 0, 0, 0, 0, 0, 0, 0, 0, 0, 0, 0, 0, 0, 0, 0, 0, 0, 0, 0, 0, 0, 0, 0, 0, 0, 0, 0, 0, 0, 0, 0, 0, 0
0, 0, 72, 2, 2, 8, 18, 25, 40, 63, 111, 93, 110, 150, 190, 206, 216, 214, 255, 230, 252, 262, 269, 247, 237, 248, 209, 228, 219, 211, 227, 191, 166, 180, 142, 156, 147, 130, 135, 93, 114, 71, 78, 46, 37, 26, 1, 0, 0, 0, 0, 0, 0, 0, 0, 0, 0, 0, 0, 0, 0, 0, 0, 0, 0, 0, 0, 0, 0, 0, 0, 0, 0, 0, 0, 0, 0, 0, 0, 0, 0, 0, 0, 0, 0, 0, 0, 0, 0, 0, 0, 0, 0, 0, 0, 0, 0, 0, 0, 0, 0, 0, 0, 0, 0, 0
0, 0, 73, 0, 7, 12, 17, 28, 44, 56, 125, 100, 101, 154, 172, 183, 197, 211, 214, 201, 244, 248, 265, 246, 250, 257, 249, 249, 191, 184, 202, 185, 181, 180, 171, 161, 134, 112, 115, 96, 93, 81, 49, 58, 22, 20, 1, 0, 0, 0, 0, 0, 0, 0, 0, 0, 0, 0, 0, 0, 0, 0, 0, 0, 0, 0, 0, 0, 0, 0, 0, 0, 0, 0, 0, 0, 0, 0, 0, 0, 0, 0, 0, 0, 0, 0, 0, 0, 0, 0, 0, 0, 0, 0, 0, 0, 0, 0, 0, 0, 0, 0, 0, 0, 0, 0
0, 0, 74, 3, 4, 7, 16, 31, 28, 60, 108, 93, 100, 154, 183, 201, 172, 215, 213, 248, 238, 266, 259, 256, 249, 230, 252, 238, 206, 242, 221, 191, 202, 169, 176, 134, 130, 138, 115, 87, 99, 85, 71, 53, 41, 17, 2, 0, 0, 0, 0, 0, 0, 0, 0, 0, 0, 0, 0, 0, 0, 0, 0, 0, 0, 0, 0, 0, 0, 0, 0, 0, 0, 0, 0, 0, 0, 0, 0, 0, 0, 0, 0, 0, 0, 0, 0, 0, 0, 0, 0, 0, 0, 0, 0, 0, 0, 0, 0, 0, 0, 0, 0, 0, 0, 0
0, 0, 75, 3, 3, 7, 12, 27, 39, 57, 127, 102, 105, 153, 177, 221, 200, 215, 239, 257, 261, 244, 270, 252, 253, 218, 216, 236, 217, 206, 228, 178, 189, 163, 139, 169, 126, 109, 102, 111, 98, 84, 69, 59, 39, 20, 1, 0, 0, 0, 0, 0, 0, 0, 0, 0, 0, 0, 0, 0, 0, 0, 0, 0, 0, 0, 0, 0, 0, 0, 0, 0, 0, 0, 0, 0, 0, 0, 0, 0, 0, 0, 0, 0, 0, 0, 0, 0, 0, 0, 0, 0, 0, 0, 0, 0, 0, 0, 0, 0, 0, 0, 0, 0, 0, 0
0, 0, 76, 5, 6, 7, 21, 29, 47, 41, 132, 107, 122, 140, 154, 192, 214, 252, 252, 214, 261, 248, 268, 277, 257, 248, 232, 204, 229, 204, 182, 201, 202, 194, 147, 135, 124, 130, 131, 114, 86, 87, 71, 62, 43, 14, 1, 0, 0, 0, 0, 0, 0, 0, 0, 0, 0, 0, 0, 0, 0, 0, 0, 0, 0, 0, 0, 0, 0, 0, 0, 0, 0, 0, 0, 0, 0, 0, 0, 0, 0, 0, 0, 0, 0, 0, 0, 0, 0, 0, 0, 0, 0, 0, 0, 0, 0, 0, 0, 0, 0, 0, 0, 0, 0, 0
0, 0, 77, 2, 3, 8, 11, 25, 42, 64, 113, 98, 108, 148, 180, 199, 178, 205, 221, 220, 230, 257, 272, 249, 243, 227, 212, 215, 215, 201, 203, 198, 172, 158, 134, 138, 124, 131, 113, 92, 72, 65, 53, 60, 38, 21, 1, 0, 0, 0, 0, 0, 0, 0, 0, 0, 0, 0, 0, 0, 0, 0, 0, 0, 0, 0, 0, 0, 0, 0, 0, 0, 0, 0, 0, 0, 0, 0, 0, 0, 0, 0, 0, 0, 0, 0, 0, 0, 0, 0, 0, 0, 0, 0, 0, 0, 0, 0, 0, 0, 0, 0, 0, 0, 0, 0
