# TOPAS Version: 3.1.p3
# Parameter File: REDLEN_small_phantom_mc_basic_2cm.txt
# Results for scorer PhantomDose
# Scored on surface: CdTeCrystal1/YPlusSurface
# X in 100 bins of 0.03332 cm
# Y in 1 bin  of 0.4 cm
# Z in 100 bins of 0.0375 cm
# SurfaceTrackCount : Sum   
# Binned by incident track energy in 100 bins of 0.00104 MeV from 0.016 MeV to 0.12 MeV
# First bin is underflow, next to last bin is overflow, last bin is for case of no incident track.
0, 0, 0, 0, 0, 0, 0, 0, 0, 0, 2, 0, 1, 0, 4, 4, 1, 2, 5, 0, 2, 2, 6, 1, 2, 4, 5, 4, 3, 0, 0, 1, 0, 2, 2, 3, 1, 2, 3, 1, 0, 1, 0, 1, 0, 0, 0, 0, 0, 0, 0, 0, 0, 0, 0, 0, 0, 0, 0, 0, 0, 0, 0, 0, 0, 0, 0, 0, 0, 0, 0, 0, 0, 0, 0, 0, 0, 0, 0, 0, 0, 0, 0, 0, 0, 0, 0, 0, 0, 0, 0, 0, 0, 0, 0, 0, 0, 0, 0, 0, 0, 0, 0, 0, 0, 0
0, 0, 1, 0, 0, 0, 0, 0, 0, 1, 1, 0, 2, 2, 2, 0, 2, 2, 1, 1, 3, 3, 3, 2, 5, 4, 6, 3, 0, 3, 3, 0, 6, 4, 4, 0, 1, 1, 0, 2, 0, 0, 2, 0, 0, 0, 0, 0, 0, 0, 0, 0, 0, 0, 0, 0, 0, 0, 0, 0, 0, 0, 0, 0, 0, 0, 0, 0, 0, 0, 0, 0, 0, 0, 0, 0, 0, 0, 0, 0, 0, 0, 0, 0, 0, 0, 0, 0, 0, 0, 0, 0, 0, 0, 0, 0, 0, 0, 0, 0, 0, 0, 0, 0, 0, 0
0, 0, 2, 0, 0, 0, 0, 0, 0, 0, 0, 0, 0, 1, 1, 1, 1, 2, 1, 6, 1, 2, 4, 2, 1, 1, 4, 2, 1, 5, 2, 1, 0, 1, 0, 1, 1, 0, 0, 2, 1, 0, 2, 0, 0, 0, 0, 0, 0, 0, 0, 0, 0, 0, 0, 0, 0, 0, 0, 0, 0, 0, 0, 0, 0, 0, 0, 0, 0, 0, 0, 0, 0, 0, 0, 0, 0, 0, 0, 0, 0, 0, 0, 0, 0, 0, 0, 0, 0, 0, 0, 0, 0, 0, 0, 0, 0, 0, 0, 0, 0, 0, 0, 0, 0, 0
0, 0, 3, 0, 0, 0, 0, 1, 0, 0, 1, 0, 1, 0, 2, 3, 4, 2, 4, 2, 7, 5, 0, 6, 6, 3, 9, 2, 2, 3, 0, 2, 3, 2, 0, 0, 2, 2, 0, 0, 0, 1, 0, 0, 0, 0, 0, 0, 0, 0, 0, 0, 0, 0, 0, 0, 0, 0, 0, 0, 0, 0, 0, 0, 0, 0, 0, 0, 0, 0, 0, 0, 0, 0, 0, 0, 0, 0, 0, 0, 0, 0, 0, 0, 0, 0, 0, 0, 0, 0, 0, 0, 0, 0, 0, 0, 0, 0, 0, 0, 0, 0, 0, 0, 0, 0
0, 0, 4, 0, 0, 0, 0, 0, 0, 0, 1, 1, 2, 3, 3, 3, 1, 1, 0, 3, 3, 1, 4, 2, 2, 5, 0, 7, 3, 1, 7, 1, 2, 5, 0, 4, 1, 3, 1, 2, 1, 1, 1, 3, 1, 0, 0, 0, 0, 0, 0, 0, 0, 0, 0, 0, 0, 0, 0, 0, 0, 0, 0, 0, 0, 0, 0, 0, 0, 0, 0, 0, 0, 0, 0, 0, 0, 0, 0, 0, 0, 0, 0, 0, 0, 0, 0, 0, 0, 0, 0, 0, 0, 0, 0, 0, 0, 0, 0, 0, 0, 0, 0, 0, 0, 0
0, 0, 5, 0, 3, 3, 10, 11, 17, 26, 50, 44, 53, 61, 86, 102, 97, 79, 79, 106, 115, 105, 97, 109, 122, 107, 82, 90, 66, 108, 80, 89, 68, 67, 72, 73, 53, 64, 49, 41, 45, 39, 27, 16, 8, 6, 0, 0, 0, 0, 0, 0, 0, 0, 0, 0, 0, 0, 0, 0, 0, 0, 0, 0, 0, 0, 0, 0, 0, 0, 0, 0, 0, 0, 0, 0, 0, 0, 0, 0, 0, 0, 0, 0, 0, 0, 0, 0, 0, 0, 0, 0, 0, 0, 0, 0, 0, 0, 0, 0, 0, 0, 0, 0, 0, 0
0, 0, 6, 0, 2, 10, 15, 28, 37, 64, 118, 90, 97, 150, 162, 193, 209, 203, 220, 225, 262, 257, 304, 226, 242, 230, 221, 237, 211, 171, 194, 172, 175, 160, 156, 140, 137, 123, 114, 101, 89, 79, 59, 66, 45, 19, 1, 0, 0, 0, 0, 0, 0, 0, 0, 0, 0, 0, 0, 0, 0, 0, 0, 0, 0, 0, 0, 0, 0, 0, 0, 0, 0, 0, 0, 0, 0, 0, 0, 0, 0, 0, 0, 0, 0, 0, 0, 0, 0, 0, 0, 0, 0, 0, 0, 0, 0, 0, 0, 0, 0, 0, 0, 0, 0, 0
0, 0, 7, 3, 3, 7, 17, 25, 40, 53, 103, 94, 140, 153, 201, 209, 205, 253, 233, 250, 228, 234, 239, 221, 255, 218, 260, 252, 206, 199, 218, 182, 180, 201, 141, 152, 135, 115, 108, 113, 83, 62, 74, 55, 57, 16, 1, 0, 0, 0, 0, 0, 0, 0, 0, 0, 0, 0, 0, 0, 0, 0, 0, 0, 0, 0, 0, 0, 0, 0, 0, 0, 0, 0, 0, 0, 0, 0, 0, 0, 0, 0, 0, 0, 0, 0, 0, 0, 0, 0, 0, 0, 0, 0, 0, 0, 0, 0, 0, 0, 0, 0, 0, 0, 0, 0
0, 0, 8, 3, 4, 9, 11, 26, 28, 45, 118, 85, 122, 128, 154, 214, 198, 223, 218, 225, 248, 272, 272, 229, 249, 258, 234, 203, 253, 242, 208, 224, 166, 186, 142, 144, 155, 131, 105, 84, 91, 74, 61, 41, 42, 28, 0, 0, 0, 0, 0, 0, 0, 0, 0, 0, 0, 0, 0, 0, 0, 0, 0, 0, 0, 0, 0, 0, 0, 0, 0, 0, 0, 0, 0, 0, 0, 0, 0, 0, 0, 0, 0, 0, 0, 0, 0, 0, 0, 0, 0, 0, 0, 0, 0, 0, 0, 0, 0, 0, 0, 0, 0, 0, 0, 0
0, 0, 9, 2, 4, 3, 15, 33, 41, 41, 126, 95, 119, 143, 163, 194, 205, 211, 241, 234, 238, 255, 255, 278, 244, 204, 268, 235, 199, 205, 174, 188, 160, 174, 181, 136, 134, 139, 130, 106, 88, 63, 71, 66, 28, 18, 0, 0, 0, 0, 0, 0, 0, 0, 0, 0, 0, 0, 0, 0, 0, 0, 0, 0, 0, 0, 0, 0, 0, 0, 0, 0, 0, 0, 0, 0, 0, 0, 0, 0, 0, 0, 0, 0, 0, 0, 0, 0, 0, 0, 0, 0, 0, 0, 0, 0, 0, 0, 0, 0, 0, 0, 0, 0, 0, 0
0, 0, 10, 5, 4, 6, 20, 15, 42, 56, 117, 86, 114, 144, 175, 192, 214, 212, 239, 246, 224, 248, 282, 243, 241, 233, 209, 249, 200, 225, 189, 165, 162, 174, 140, 145, 161, 132, 111, 112, 95, 87, 67, 55, 28, 23, 2, 0, 0, 0, 0, 0, 0, 0, 0, 0, 0, 0, 0, 0, 0, 0, 0, 0, 0, 0, 0, 0, 0, 0, 0, 0, 0, 0, 0, 0, 0, 0, 0, 0, 0, 0, 0, 0, 0, 0, 0, 0, 0, 0, 0, 0, 0, 0, 0, 0, 0, 0, 0, 0, 0, 0, 0, 0, 0, 0
0, 0, 11, 1, 3, 9, 14, 26, 36, 49, 125, 95, 102, 127, 182, 177, 180, 231, 199, 246, 225, 242, 223, 272, 253, 225, 245, 229, 196, 192, 200, 193, 170, 190, 157, 129, 145, 110, 114, 107, 87, 81, 77, 58, 39, 32, 1, 0, 0, 0, 0, 0, 0, 0, 0, 0, 0, 0, 0, 0, 0, 0, 0, 0, 0, 0, 0, 0, 0, 0, 0, 0, 0, 0, 0, 0, 0, 0, 0, 0, 0, 0, 0, 0, 0, 0, 0, 0, 0, 0, 0, 0, 0, 0, 0, 0, 0, 0, 0, 0, 0, 0, 0, 0, 0, 0
0, 0, 12, 4, 4, 10, 14, 29, 39, 55, 104, 86, 101, 132, 178, 207, 175, 251, 215, 240, 218, 242, 263, 252, 229, 208, 226, 217, 217, 225, 191, 206, 179, 157, 170, 144, 150, 134, 121, 115, 90, 81, 64, 62, 49, 24, 2, 0, 0, 0, 0, 0, 0, 0, 0, 0, 0, 0, 0, 0, 0, 0, 0, 0, 0, 0, 0, 0, 0, 0, 0, 0, 0, 0, 0, 0, 0, 0, 0, 0, 0, 0, 0, 0, 0, 0, 0, 0, 0, 0, 0, 0, 0, 0, 0, 0, 0, 0, 0, 0, 0, 0, 0, 0, 0, 0
0, 0, 13, 5, 2, 6, 15, 32, 43, 58, 106, 93, 110, 146, 175, 204, 197, 197, 210, 221, 243, 284, 268, 232, 243, 235, 233, 234, 231, 223, 191, 168, 166, 171, 140, 184, 114, 120, 117, 107, 96, 68, 87, 52, 34, 20, 4, 0, 0, 0, 0, 0, 0, 0, 0, 0, 0, 0, 0, 0, 0, 0, 0, 0, 0, 0, 0, 0, 0, 0, 0, 0, 0, 0, 0, 0, 0, 0, 0, 0, 0, 0, 0, 0, 0, 0, 0, 0, 0, 0, 0, 0, 0, 0, 0, 0, 0, 0, 0, 0, 0, 0, 0, 0, 0, 0
0, 0, 14, 0, 3, 16, 15, 24, 43, 57, 115, 96, 146, 178, 157, 185, 189, 212, 204, 238, 249, 265, 250, 237, 267, 254, 251, 226, 205, 222, 212, 236, 162, 168, 146, 150, 135, 121, 94, 97, 97, 80, 90, 52, 32, 11, 1, 0, 0, 0, 0, 0, 0, 0, 0, 0, 0, 0, 0, 0, 0, 0, 0, 0, 0, 0, 0, 0, 0, 0, 0, 0, 0, 0, 0, 0, 0, 0, 0, 0, 0, 0, 0, 0, 0, 0, 0, 0, 0, 0, 0, 0, 0, 0, 0, 0, 0, 0, 0, 0, 0, 0, 0, 0, 0, 0
0, 0, 15, 4, 4, 12, 12, 30, 40, 54, 95, 101, 110, 133, 174, 205, 221, 218, 213, 270, 266, 265, 244, 243, 224, 220, 257, 230, 221, 203, 191, 195, 179, 169, 167, 136, 142, 107, 104, 112, 98, 74, 69, 53, 32, 22, 2, 0, 0, 0, 0, 0, 0, 0, 0, 0, 0, 0, 0, 0, 0, 0, 0, 0, 0, 0, 0, 0, 0, 0, 0, 0, 0, 0, 0, 0, 0, 0, 0, 0, 0, 0, 0, 0, 0, 0, 0, 0, 0, 0, 0, 0, 0, 0, 0, 0, 0, 0, 0, 0, 0, 0, 0, 0, 0, 0
0, 0, 16, 0, 4, 8, 15, 22, 47, 51, 97, 95, 103, 146, 186, 204, 183, 175, 215, 233, 251, 237, 232, 285, 237, 249, 246, 208, 204, 211, 212, 189, 176, 150, 150, 152, 114, 152, 110, 109, 89, 78, 82, 53, 38, 13, 1, 0, 0, 0, 0, 0, 0, 0, 0, 0, 0, 0, 0, 0, 0, 0, 0, 0, 0, 0, 0, 0, 0, 0, 0, 0, 0, 0, 0, 0, 0, 0, 0, 0, 0, 0, 0, 0, 0, 0, 0, 0, 0, 0, 0, 0, 0, 0, 0, 0, 0, 0, 0, 0, 0, 0, 0, 0, 0, 0
0, 0, 17, 4, 5, 7, 16, 26, 37, 49, 110, 93, 114, 151, 157, 207, 208, 242, 258, 237, 249, 211, 273, 242, 229, 247, 231, 200, 218, 208, 198, 196, 181, 168, 153, 147, 119, 117, 111, 96, 97, 79, 81, 54, 48, 26, 2, 0, 0, 0, 0, 0, 0, 0, 0, 0, 0, 0, 0, 0, 0, 0, 0, 0, 0, 0, 0, 0, 0, 0, 0, 0, 0, 0, 0, 0, 0, 0, 0, 0, 0, 0, 0, 0, 0, 0, 0, 0, 0, 0, 0, 0, 0, 0, 0, 0, 0, 0, 0, 0, 0, 0, 0, 0, 0, 0
0, 0, 18, 4, 2, 11, 15, 30, 38, 59, 109, 81, 125, 137, 148, 207, 189, 195, 230, 247, 241, 279, 259, 255, 244, 225, 229, 228, 247, 206, 196, 189, 155, 143, 147, 191, 122, 126, 114, 107, 96, 75, 82, 51, 26, 20, 2, 0, 0, 0, 0, 0, 0, 0, 0, 0, 0, 0, 0, 0, 0, 0, 0, 0, 0, 0, 0, 0, 0, 0, 0, 0, 0, 0, 0, 0, 0, 0, 0, 0, 0, 0, 0, 0, 0, 0, 0, 0, 0, 0, 0, 0, 0, 0, 0, 0, 0, 0, 0, 0, 0, 0, 0, 0, 0, 0
0, 0, 19, 1, 2, 5, 15, 25, 31, 51, 116, 107, 100, 152, 177, 196, 207, 208, 243, 276, 234, 243, 282, 246, 222, 229, 237, 243, 216, 224, 209, 175, 170, 174, 166, 130, 124, 121, 128, 110, 105, 87, 71, 48, 36, 37, 2, 0, 0, 0, 0, 0, 0, 0, 0, 0, 0, 0, 0, 0, 0, 0, 0, 0, 0, 0, 0, 0, 0, 0, 0, 0, 0, 0, 0, 0, 0, 0, 0, 0, 0, 0, 0, 0, 0, 0, 0, 0, 0, 0, 0, 0, 0, 0, 0, 0, 0, 0, 0, 0, 0, 0, 0, 0, 0, 0
0, 0, 20, 1, 3, 6, 9, 21, 54, 64, 116, 98, 129, 132, 168, 177, 211, 219, 198, 221, 249, 252, 238, 245, 257, 249, 245, 189, 227, 212, 201, 157, 177, 159, 165, 176, 144, 128, 120, 112, 91, 83, 68, 61, 41, 23, 3, 0, 0, 0, 0, 0, 0, 0, 0, 0, 0, 0, 0, 0, 0, 0, 0, 0, 0, 0, 0, 0, 0, 0, 0, 0, 0, 0, 0, 0, 0, 0, 0, 0, 0, 0, 0, 0, 0, 0, 0, 0, 0, 0, 0, 0, 0, 0, 0, 0, 0, 0, 0, 0, 0, 0, 0, 0, 0, 0
0, 0, 21, 2, 2, 11, 18, 26, 44, 53, 112, 101, 97, 128, 185, 199, 191, 219, 239, 237, 251, 252, 265, 238, 225, 279, 203, 219, 234, 220, 183, 169, 166, 176, 165, 146, 126, 155, 107, 101, 106, 88, 52, 48, 44, 24, 1, 0, 0, 0, 0, 0, 0, 0, 0, 0, 0, 0, 0, 0, 0, 0, 0, 0, 0, 0, 0, 0, 0, 0, 0, 0, 0, 0, 0, 0, 0, 0, 0, 0, 0, 0, 0, 0, 0, 0, 0, 0, 0, 0, 0, 0, 0, 0, 0, 0, 0, 0, 0, 0, 0, 0, 0, 0, 0, 0
0, 0, 22, 5, 5, 3, 13, 27, 32, 51, 112, 90, 117, 141, 145, 193, 230, 235, 209, 226, 258, 276, 247, 278, 233, 212, 200, 222, 208, 214, 177, 201, 166, 155, 151, 147, 138, 123, 103, 108, 95, 77, 69, 46, 49, 19, 4, 0, 0, 0, 0, 0, 0, 0, 0, 0, 0, 0, 0, 0, 0, 0, 0, 0, 0, 0, 0, 0, 0, 0, 0, 0, 0, 0, 0, 0, 0, 0, 0, 0, 0, 0, 0, 0, 0, 0, 0, 0, 0, 0, 0, 0, 0, 0, 0, 0, 0, 0, 0, 0, 0, 0, 0, 0, 0, 0
0, 0, 23, 4, 5, 9, 18, 22, 43, 63, 109, 87, 122, 157, 172, 204, 198, 198, 236, 256, 216, 234, 251, 239, 230, 236, 254, 234, 225, 210, 191, 199, 169, 184, 147, 148, 115, 126, 109, 110, 91, 85, 72, 54, 43, 27, 1, 0, 0, 0, 0, 0, 0, 0, 0, 0, 0, 0, 0, 0, 0, 0, 0, 0, 0, 0, 0, 0, 0, 0, 0, 0, 0, 0, 0, 0, 0, 0, 0, 0, 0, 0, 0, 0, 0, 0, 0, 0, 0, 0, 0, 0, 0, 0, 0, 0, 0, 0, 0, 0, 0, 0, 0, 0, 0, 0
0, 0, 24, 3, 5, 12, 17, 26, 46, 59, 104, 110, 111, 137, 158, 169, 186, 223, 244, 236, 244, 254, 219, 244, 249, 218, 242, 230, 198, 187, 185, 176, 225, 180, 180, 148, 169, 146, 119, 88, 100, 92, 79, 43, 39, 16, 0, 0, 0, 0, 0, 0, 0, 0, 0, 0, 0, 0, 0, 0, 0, 0, 0, 0, 0, 0, 0, 0, 0, 0, 0, 0, 0, 0, 0, 0, 0, 0, 0, 0, 0, 0, 0, 0, 0, 0, 0, 0, 0, 0, 0, 0, 0, 0, 0, 0, 0, 0, 0, 0, 0, 0, 0, 0, 0, 0
0, 0, 25, 1, 3, 11, 9, 26, 40, 60, 119, 100, 111, 139, 172, 179, 198, 222, 241, 249, 250, 224, 271, 288, 227, 239, 218, 203, 235, 207, 187, 188, 182, 182, 165, 124, 120, 129, 105, 113, 90, 70, 61, 51, 44, 29, 1, 0, 0, 0, 0, 0, 0, 0, 0, 0, 0, 0, 0, 0, 0, 0, 0, 0, 0, 0, 0, 0, 0, 0, 0, 0, 0, 0, 0, 0, 0, 0, 0, 0, 0, 0, 0, 0, 0, 0, 0, 0, 0, 0, 0, 0, 0, 0, 0, 0, 0, 0, 0, 0, 0, 0, 0, 0, 0, 0
0, 0, 26, 2, 5, 4, 14, 20, 38, 57, 125, 95, 112, 141, 177, 202, 162, 218, 217, 246, 250, 226, 231, 267, 265, 240, 230, 200, 238, 221, 214, 174, 193, 177, 143, 152, 141, 128, 101, 110, 93, 81, 61, 49, 45, 26, 2, 0, 0, 0, 0, 0, 0, 0, 0, 0, 0, 0, 0, 0, 0, 0, 0, 0, 0, 0, 0, 0, 0, 0, 0, 0, 0, 0, 0, 0, 0, 0, 0, 0, 0, 0, 0, 0, 0, 0, 0, 0, 0, 0, 0, 0, 0, 0, 0, 0, 0, 0, 0, 0, 0, 0, 0, 0, 0, 0
0, 0, 27, 1, 4, 2, 18, 23, 38, 54, 117, 92, 142, 151, 176, 200, 182, 213, 249, 301, 284, 249, 253, 226, 263, 238, 236, 196, 254, 218, 222, 161, 196, 151, 174, 132, 128, 127, 117, 98, 88, 81, 57, 50, 42, 27, 1, 0, 0, 0, 0, 0, 0, 0, 0, 0, 0, 0, 0, 0, 0, 0, 0, 0, 0, 0, 0, 0, 0, 0, 0, 0, 0, 0, 0, 0, 0, 0, 0, 0, 0, 0, 0, 0, 0, 0, 0, 0, 0, 0, 0, 0, 0, 0, 0, 0, 0, 0, 0, 0, 0, 0, 0, 0, 0, 0
0, 0, 28, 0, 5, 9, 11, 26, 44, 54, 126, 109, 113, 124, 169, 217, 207, 213, 210, 255, 232, 255, 285, 228, 255, 240, 214, 233, 231, 201, 209, 207, 166, 133, 145, 143, 136, 126, 106, 95, 107, 70, 75, 48, 46, 22, 2, 0, 0, 0, 0, 0, 0, 0, 0, 0, 0, 0, 0, 0, 0, 0, 0, 0, 0, 0, 0, 0, 0, 0, 0, 0, 0, 0, 0, 0, 0, 0, 0, 0, 0, 0, 0, 0, 0, 0, 0, 0, 0, 0, 0, 0, 0, 0, 0, 0, 0, 0, 0, 0, 0, 0, 0, 0, 0, 0
0, 0, 29, 0, 6, 6, 17, 29, 30, 50, 119, 93, 86, 151, 193, 194, 213, 232, 176, 206, 247, 259, 257, 253, 220, 219, 226, 254, 239, 223, 188, 204, 170, 174, 178, 157, 134, 116, 97, 120, 93, 65, 68, 55, 42, 18, 1, 0, 0, 0, 0, 0, 0, 0, 0, 0, 0, 0, 0, 0, 0, 0, 0, 0, 0, 0, 0, 0, 0, 0, 0, 0, 0, 0, 0, 0, 0, 0, 0, 0, 0, 0, 0, 0, 0, 0, 0, 0, 0, 0, 0, 0, 0, 0, 0, 0, 0, 0, 0, 0, 0, 0, 0, 0, 0, 0
0, 0, 30, 3, 2, 8, 18, 19, 37, 58, 126, 101, 128, 147, 171, 219, 189, 235, 223, 231, 222, 213, 236, 247, 241, 220, 244, 243, 191, 222, 178, 218, 172, 164, 138, 159, 145, 132, 115, 118, 97, 85, 86, 63, 44, 20, 2, 0, 0, 0, 0, 0, 0, 0, 0, 0, 0, 0, 0, 0, 0, 0, 0, 0, 0, 0, 0, 0, 0, 0, 0, 0, 0, 0, 0, 0, 0, 0, 0, 0, 0, 0, 0, 0, 0, 0, 0, 0, 0, 0, 0, 0, 0, 0, 0, 0, 0, 0, 0, 0, 0, 0, 0, 0, 0, 0
0, 0, 31, 3, 2, 7, 18, 19, 43, 58, 93, 86, 119, 129, 164, 206, 233, 206, 238, 253, 267, 249, 238, 219, 271, 239, 222, 227, 233, 207, 200, 183, 172, 168, 147, 144, 144, 103, 118, 95, 76, 83, 73, 58, 45, 21, 0, 0, 0, 0, 0, 0, 0, 0, 0, 0, 0, 0, 0, 0, 0, 0, 0, 0, 0, 0, 0, 0, 0, 0, 0, 0, 0, 0, 0, 0, 0, 0, 0, 0, 0, 0, 0, 0, 0, 0, 0, 0, 0, 0, 0, 0, 0, 0, 0, 0, 0, 0, 0, 0, 0, 0, 0, 0, 0, 0
0, 0, 32, 2, 4, 9, 16, 30, 37, 78, 123, 97, 113, 147, 156, 214, 210, 202, 229, 233, 245, 218, 235, 248, 256, 226, 240, 201, 206, 203, 178, 212, 199, 150, 151, 128, 151, 128, 125, 109, 104, 80, 53, 54, 43, 20, 1, 0, 0, 0, 0, 0, 0, 0, 0, 0, 0, 0, 0, 0, 0, 0, 0, 0, 0, 0, 0, 0, 0, 0, 0, 0, 0, 0, 0, 0, 0, 0, 0, 0, 0, 0, 0, 0, 0, 0, 0, 0, 0, 0, 0, 0, 0, 0, 0, 0, 0, 0, 0, 0, 0, 0, 0, 0, 0, 0
0, 0, 33, 0, 3, 5, 12, 26, 42, 61, 127, 93, 118, 135, 175, 198, 208, 231, 211, 229, 267, 253, 229, 245, 255, 227, 247, 220, 216, 220, 194, 173, 227, 176, 172, 153, 138, 127, 125, 106, 85, 91, 76, 56, 32, 19, 0, 0, 0, 0, 0, 0, 0, 0, 0, 0, 0, 0, 0, 0, 0, 0, 0, 0, 0, 0, 0, 0, 0, 0, 0, 0, 0, 0, 0, 0, 0, 0, 0, 0, 0, 0, 0, 0, 0, 0, 0, 0, 0, 0, 0, 0, 0, 0, 0, 0, 0, 0, 0, 0, 0, 0, 0, 0, 0, 0
0, 0, 34, 2, 6, 3, 15, 31, 43, 60, 130, 92, 103, 147, 150, 213, 170, 216, 257, 249, 225, 226, 238, 262, 233, 255, 205, 235, 208, 211, 192, 180, 181, 171, 150, 151, 159, 134, 139, 93, 85, 93, 80, 51, 43, 18, 1, 0, 0, 0, 0, 0, 0, 0, 0, 0, 0, 0, 0, 0, 0, 0, 0, 0, 0, 0, 0, 0, 0, 0, 0, 0, 0, 0, 0, 0, 0, 0, 0, 0, 0, 0, 0, 0, 0, 0, 0, 0, 0, 0, 0, 0, 0, 0, 0, 0, 0, 0, 0, 0, 0, 0, 0, 0, 0, 0
0, 0, 35, 4, 2, 4, 13, 36, 34, 57, 106, 83, 139, 149, 179, 207, 200, 226, 221, 239, 218, 250, 269, 248, 237, 245, 249, 245, 211, 202, 185, 197, 172, 194, 154, 151, 137, 128, 130, 114, 79, 76, 71, 58, 44, 22, 1, 0, 0, 0, 0, 0, 0, 0, 0, 0, 0, 0, 0, 0, 0, 0, 0, 0, 0, 0, 0, 0, 0, 0, 0, 0, 0, 0, 0, 0, 0, 0, 0, 0, 0, 0, 0, 0, 0, 0, 0, 0, 0, 0, 0, 0, 0, 0, 0, 0, 0, 0, 0, 0, 0, 0, 0, 0, 0, 0
0, 0, 36, 4, 4, 9, 8, 20, 44, 55, 108, 89, 111, 140, 178, 196, 190, 214, 202, 257, 236, 234, 247, 248, 261, 254, 214, 190, 231, 215, 195, 202, 194, 183, 158, 157, 129, 98, 124, 108, 96, 79, 70, 64, 41, 21, 3, 0, 0, 0, 0, 0, 0, 0, 0, 0, 0, 0, 0, 0, 0, 0, 0, 0, 0, 0, 0, 0, 0, 0, 0, 0, 0, 0, 0, 0, 0, 0, 0, 0, 0, 0, 0, 0, 0, 0, 0, 0, 0, 0, 0, 0, 0, 0, 0, 0, 0, 0, 0, 0, 0, 0, 0, 0, 0, 0
0, 0, 37, 4, 3, 11, 16, 28, 43, 73, 108, 107, 111, 155, 179, 181, 213, 221, 219, 213, 254, 240, 274, 257, 250, 234, 210, 207, 206, 220, 199, 192, 183, 169, 153, 160, 148, 133, 110, 103, 108, 84, 60, 54, 37, 20, 1, 0, 0, 0, 0, 0, 0, 0, 0, 0, 0, 0, 0, 0, 0, 0, 0, 0, 0, 0, 0, 0, 0, 0, 0, 0, 0, 0, 0, 0, 0, 0, 0, 0, 0, 0, 0, 0, 0, 0, 0, 0, 0, 0, 0, 0, 0, 0, 0, 0, 0, 0, 0, 0, 0, 0, 0, 0, 0, 0
0, 0, 38, 0, 3, 6, 12, 33, 39, 58, 125, 79, 119, 157, 161, 205, 200, 208, 241, 231, 230, 240, 252, 271, 223, 216, 221, 220, 248, 217, 196, 191, 165, 161, 164, 160, 136, 136, 110, 102, 78, 69, 73, 59, 40, 23, 1, 0, 0, 0, 0, 0, 0, 0, 0, 0, 0, 0, 0, 0, 0, 0, 0, 0, 0, 0, 0, 0, 0, 0, 0, 0, 0, 0, 0, 0, 0, 0, 0, 0, 0, 0, 0, 0, 0, 0, 0, 0, 0, 0, 0, 0, 0, 0, 0, 0, 0, 0, 0, 0, 0, 0, 0, 0, 0, 0
0, 0, 39, 0, 2, 11, 14, 20, 53, 56, 113, 81, 115, 129, 188, 201, 213, 216, 216, 262, 278, 231, 248, 240, 242, 234, 224, 227, 231, 191, 202, 189, 181, 146, 152, 154, 131, 119, 104, 85, 113, 77, 79, 57, 26, 14, 0, 0, 0, 0, 0, 0, 0, 0, 0, 0, 0, 0, 0, 0, 0, 0, 0, 0, 0, 0, 0, 0, 0, 0, 0, 0, 0, 0, 0, 0, 0, 0, 0, 0, 0, 0, 0, 0, 0, 0, 0, 0, 0, 0, 0, 0, 0, 0, 0, 0, 0, 0, 0, 0, 0, 0, 0, 0, 0, 0
0, 0, 40, 2, 5, 10, 6, 17, 40, 61, 110, 92, 118, 161, 169, 194, 186, 228, 247, 233, 243, 258, 296, 246, 253, 229, 235, 237, 213, 214, 189, 197, 217, 163, 162, 154, 127, 133, 121, 97, 93, 91, 61, 48, 36, 20, 1, 0, 0, 0, 0, 0, 0, 0, 0, 0, 0, 0, 0, 0, 0, 0, 0, 0, 0, 0, 0, 0, 0, 0, 0, 0, 0, 0, 0, 0, 0, 0, 0, 0, 0, 0, 0, 0, 0, 0, 0, 0, 0, 0, 0, 0, 0, 0, 0, 0, 0, 0, 0, 0, 0, 0, 0, 0, 0, 0
0, 0, 41, 2, 3, 11, 12, 31, 31, 45, 105, 80, 128, 132, 140, 182, 192, 187, 220, 224, 233, 220, 231, 240, 219, 242, 246, 230, 191, 199, 186, 195, 168, 148, 154, 144, 109, 127, 122, 95, 91, 72, 61, 57, 38, 20, 0, 0, 0, 0, 0, 0, 0, 0, 0, 0, 0, 0, 0, 0, 0, 0, 0, 0, 0, 0, 0, 0, 0, 0, 0, 0, 0, 0, 0, 0, 0, 0, 0, 0, 0, 0, 0, 0, 0, 0, 0, 0, 0, 0, 0, 0, 0, 0, 0, 0, 0, 0, 0, 0, 0, 0, 0, 0, 0, 0
0, 0, 42, 3, 4, 4, 9, 24, 36, 24, 91, 64, 95, 120, 125, 170, 170, 179, 174, 215, 177, 209, 209, 203, 180, 200, 240, 205, 171, 192, 168, 165, 154, 140, 173, 131, 113, 89, 88, 106, 85, 73, 50, 31, 36, 21, 2, 0, 0, 0, 0, 0, 0, 0, 0, 0, 0, 0, 0, 0, 0, 0, 0, 0, 0, 0, 0, 0, 0, 0, 0, 0, 0, 0, 0, 0, 0, 0, 0, 0, 0, 0, 0, 0, 0, 0, 0, 0, 0, 0, 0, 0, 0, 0, 0, 0, 0, 0, 0, 0, 0, 0, 0, 0, 0, 0
0, 0, 43, 1, 1, 6, 14, 14, 24, 31, 68, 51, 66, 92, 114, 131, 137, 138, 151, 139, 184, 156, 158, 174, 171, 169, 191, 192, 169, 135, 151, 129, 116, 117, 130, 124, 94, 98, 103, 76, 57, 58, 49, 33, 27, 19, 0, 0, 0, 0, 0, 0, 0, 0, 0, 0, 0, 0, 0, 0, 0, 0, 0, 0, 0, 0, 0, 0, 0, 0, 0, 0, 0, 0, 0, 0, 0, 0, 0, 0, 0, 0, 0, 0, 0, 0, 0, 0, 0, 0, 0, 0, 0, 0, 0, 0, 0, 0, 0, 0, 0, 0, 0, 0, 0, 0
0, 0, 44, 0, 0, 4, 7, 6, 16, 23, 45, 46, 56, 67, 72, 84, 134, 99, 114, 129, 172, 155, 155, 141, 159, 146, 113, 125, 108, 114, 123, 122, 109, 108, 123, 97, 86, 73, 84, 50, 50, 54, 52, 31, 30, 18, 2, 0, 0, 0, 0, 0, 0, 0, 0, 0, 0, 0, 0, 0, 0, 0, 0, 0, 0, 0, 0, 0, 0, 0, 0, 0, 0, 0, 0, 0, 0, 0, 0, 0, 0, 0, 0, 0, 0, 0, 0, 0, 0, 0, 0, 0, 0, 0, 0, 0, 0, 0, 0, 0, 0, 0, 0, 0, 0, 0
0, 0, 45, 5, 1, 2, 5, 9, 13, 24, 51, 33, 38, 55, 51, 80, 65, 101, 119, 135, 106, 130, 134, 131, 135, 116, 139, 119, 115, 121, 112, 110, 92, 98, 96, 87, 73, 59, 70, 51, 53, 51, 47, 37, 20, 13, 1, 0, 0, 0, 0, 0, 0, 0, 0, 0, 0, 0, 0, 0, 0, 0, 0, 0, 0, 0, 0, 0, 0, 0, 0, 0, 0, 0, 0, 0, 0, 0, 0, 0, 0, 0, 0, 0, 0, 0, 0, 0, 0, 0, 0, 0, 0, 0, 0, 0, 0, 0, 0, 0, 0, 0, 0, 0, 0, 0
0, 0, 46, 0, 0, 1, 5, 5, 9, 12, 24, 28, 23, 39, 58, 73, 63, 75, 91, 85, 74, 99, 114, 105, 84, 97, 109, 104, 104, 116, 81, 97, 93, 67, 80, 67, 72, 57, 65, 66, 43, 33, 35, 30, 23, 14, 0, 0, 0, 0, 0, 0, 0, 0, 0, 0, 0, 0, 0, 0, 0, 0, 0, 0, 0, 0, 0, 0, 0, 0, 0, 0, 0, 0, 0, 0, 0, 0, 0, 0, 0, 0, 0, 0, 0, 0, 0, 0, 0, 0, 0, 0, 0, 0, 0, 0, 0, 0, 0, 0, 0, 0, 0, 0, 0, 0
0, 0, 47, 0, 0, 1, 0, 3, 4, 7, 25, 17, 23, 41, 37, 54, 48, 68, 63, 88, 87, 81, 90, 105, 110, 111, 87, 93, 86, 93, 96, 69, 79, 79, 70, 89, 76, 55, 48, 38, 49, 41, 36, 26, 22, 10, 0, 0, 0, 0, 0, 0, 0, 0, 0, 0, 0, 0, 0, 0, 0, 0, 0, 0, 0, 0, 0, 0, 0, 0, 0, 0, 0, 0, 0, 0, 0, 0, 0, 0, 0, 0, 0, 0, 0, 0, 0, 0, 0, 0, 0, 0, 0, 0, 0, 0, 0, 0, 0, 0, 0, 0, 0, 0, 0, 0
0, 0, 48, 0, 0, 0, 2, 3, 1, 9, 17, 10, 16, 23, 40, 42, 47, 47, 73, 65, 77, 79, 83, 97, 54, 83, 82, 111, 81, 74, 91, 76, 92, 67, 63, 62, 57, 60, 52, 49, 28, 47, 34, 38, 23, 7, 0, 0, 0, 0, 0, 0, 0, 0, 0, 0, 0, 0, 0, 0, 0, 0, 0, 0, 0, 0, 0, 0, 0, 0, 0, 0, 0, 0, 0, 0, 0, 0, 0, 0, 0, 0, 0, 0, 0, 0, 0, 0, 0, 0, 0, 0, 0, 0, 0, 0, 0, 0, 0, 0, 0, 0, 0, 0, 0, 0
0, 0, 49, 0, 0, 0, 0, 0, 4, 3, 26, 8, 22, 35, 41, 39, 51, 50, 60, 69, 66, 81, 92, 78, 73, 85, 88, 58, 88, 82, 77, 73, 80, 57, 68, 57, 72, 45, 55, 51, 38, 36, 28, 21, 18, 10, 0, 0, 0, 0, 0, 0, 0, 0, 0, 0, 0, 0, 0, 0, 0, 0, 0, 0, 0, 0, 0, 0, 0, 0, 0, 0, 0, 0, 0, 0, 0, 0, 0, 0, 0, 0, 0, 0, 0, 0, 0, 0, 0, 0, 0, 0, 0, 0, 0, 0, 0, 0, 0, 0, 0, 0, 0, 0, 0, 0
0, 0, 50, 2, 0, 0, 1, 2, 3, 6, 22, 9, 11, 33, 36, 37, 37, 47, 46, 75, 96, 82, 68, 65, 81, 90, 85, 80, 79, 81, 67, 70, 70, 60, 61, 47, 61, 63, 49, 42, 41, 34, 27, 20, 20, 4, 0, 0, 0, 0, 0, 0, 0, 0, 0, 0, 0, 0, 0, 0, 0, 0, 0, 0, 0, 0, 0, 0, 0, 0, 0, 0, 0, 0, 0, 0, 0, 0, 0, 0, 0, 0, 0, 0, 0, 0, 0, 0, 0, 0, 0, 0, 0, 0, 0, 0, 0, 0, 0, 0, 0, 0, 0, 0, 0, 0
0, 0, 51, 0, 0, 0, 2, 2, 1, 8, 19, 12, 16, 34, 43, 44, 53, 57, 43, 74, 77, 88, 86, 80, 89, 78, 75, 85, 81, 64, 77, 74, 73, 66, 54, 63, 52, 46, 35, 42, 36, 31, 33, 20, 12, 5, 0, 0, 0, 0, 0, 0, 0, 0, 0, 0, 0, 0, 0, 0, 0, 0, 0, 0, 0, 0, 0, 0, 0, 0, 0, 0, 0, 0, 0, 0, 0, 0, 0, 0, 0, 0, 0, 0, 0, 0, 0, 0, 0, 0, 0, 0, 0, 0, 0, 0, 0, 0, 0, 0, 0, 0, 0, 0, 0, 0
0, 0, 52, 0, 1, 2, 0, 1, 1, 5, 26, 15, 22, 32, 52, 57, 42, 52, 62, 81, 84, 77, 93, 79, 74, 74, 96, 79, 91, 90, 98, 88, 86, 88, 82, 47, 57, 60, 50, 30, 41, 35, 38, 34, 24, 11, 2, 0, 0, 0, 0, 0, 0, 0, 0, 0, 0, 0, 0, 0, 0, 0, 0, 0, 0, 0, 0, 0, 0, 0, 0, 0, 0, 0, 0, 0, 0, 0, 0, 0, 0, 0, 0, 0, 0, 0, 0, 0, 0, 0, 0, 0, 0, 0, 0, 0, 0, 0, 0, 0, 0, 0, 0, 0, 0, 0
0, 0, 53, 3, 1, 0, 2, 8, 9, 16, 41, 19, 31, 42, 62, 64, 66, 78, 68, 103, 84, 113, 107, 102, 118, 112, 100, 83, 113, 108, 88, 84, 79, 83, 68, 68, 101, 56, 56, 55, 52, 29, 28, 39, 28, 7, 0, 0, 0, 0, 0, 0, 0, 0, 0, 0, 0, 0, 0, 0, 0, 0, 0, 0, 0, 0, 0, 0, 0, 0, 0, 0, 0, 0, 0, 0, 0, 0, 0, 0, 0, 0, 0, 0, 0, 0, 0, 0, 0, 0, 0, 0, 0, 0, 0, 0, 0, 0, 0, 0, 0, 0, 0, 0, 0, 0
0, 0, 54, 1, 1, 2, 4, 6, 14, 26, 49, 36, 37, 48, 56, 83, 96, 95, 97, 108, 110, 115, 138, 119, 134, 159, 110, 127, 111, 119, 106, 105, 117, 89, 91, 73, 71, 67, 76, 57, 54, 48, 50, 31, 21, 9, 2, 0, 0, 0, 0, 0, 0, 0, 0, 0, 0, 0, 0, 0, 0, 0, 0, 0, 0, 0, 0, 0, 0, 0, 0, 0, 0, 0, 0, 0, 0, 0, 0, 0, 0, 0, 0, 0, 0, 0, 0, 0, 0, 0, 0, 0, 0, 0, 0, 0, 0, 0, 0, 0, 0, 0, 0, 0, 0, 0
0, 0, 55, 1, 1, 1, 5, 9, 21, 21, 52, 40, 48, 78, 84, 104, 110, 101, 149, 167, 125, 142, 137, 144, 143, 151, 163, 136, 137, 106, 118, 116, 118, 113, 102, 95, 84, 93, 69, 75, 54, 48, 38, 31, 25, 9, 2, 0, 0, 0, 0, 0, 0, 0, 0, 0, 0, 0, 0, 0, 0, 0, 0, 0, 0, 0, 0, 0, 0, 0, 0, 0, 0, 0, 0, 0, 0, 0, 0, 0, 0, 0, 0, 0, 0, 0, 0, 0, 0, 0, 0, 0, 0, 0, 0, 0, 0, 0, 0, 0, 0, 0, 0, 0, 0, 0
0, 0, 56, 2, 2, 3, 7, 16, 31, 30, 68, 56, 78, 95, 106, 126, 150, 123, 160, 177, 145, 157, 177, 185, 189, 142, 159, 158, 144, 147, 123, 108, 135, 142, 115, 98, 105, 92, 77, 83, 73, 57, 51, 40, 29, 20, 0, 0, 0, 0, 0, 0, 0, 0, 0, 0, 0, 0, 0, 0, 0, 0, 0, 0, 0, 0, 0, 0, 0, 0, 0, 0, 0, 0, 0, 0, 0, 0, 0, 0, 0, 0, 0, 0, 0, 0, 0, 0, 0, 0, 0, 0, 0, 0, 0, 0, 0, 0, 0, 0, 0, 0, 0, 0, 0, 0
0, 0, 57, 1, 1, 5, 10, 19, 25, 50, 92, 64, 84, 110, 123, 137, 179, 170, 184, 230, 197, 189, 207, 217, 188, 190, 169, 174, 212, 159, 163, 157, 136, 143, 118, 130, 147, 109, 107, 91, 83, 50, 56, 42, 45, 23, 0, 0, 0, 0, 0, 0, 0, 0, 0, 0, 0, 0, 0, 0, 0, 0, 0, 0, 0, 0, 0, 0, 0, 0, 0, 0, 0, 0, 0, 0, 0, 0, 0, 0, 0, 0, 0, 0, 0, 0, 0, 0, 0, 0, 0, 0, 0, 0, 0, 0, 0, 0, 0, 0, 0, 0, 0, 0, 0, 0
0, 0, 58, 1, 3, 9, 13, 31, 24, 45, 108, 89, 104, 144, 153, 172, 191, 200, 195, 254, 224, 226, 235, 275, 215, 226, 234, 228, 203, 235, 183, 195, 137, 154, 123, 159, 129, 142, 100, 96, 64, 82, 68, 44, 46, 19, 0, 0, 0, 0, 0, 0, 0, 0, 0, 0, 0, 0, 0, 0, 0, 0, 0, 0, 0, 0, 0, 0, 0, 0, 0, 0, 0, 0, 0, 0, 0, 0, 0, 0, 0, 0, 0, 0, 0, 0, 0, 0, 0, 0, 0, 0, 0, 0, 0, 0, 0, 0, 0, 0, 0, 0, 0, 0, 0, 0
0, 0, 59, 3, 2, 4, 20, 37, 34, 51, 104, 76, 125, 154, 159, 194, 198, 206, 223, 215, 242, 278, 223, 234, 240, 253, 222, 215, 179, 235, 193, 182, 177, 166, 167, 165, 124, 129, 103, 101, 86, 83, 68, 51, 44, 18, 0, 0, 0, 0, 0, 0, 0, 0, 0, 0, 0, 0, 0, 0, 0, 0, 0, 0, 0, 0, 0, 0, 0, 0, 0, 0, 0, 0, 0, 0, 0, 0, 0, 0, 0, 0, 0, 0, 0, 0, 0, 0, 0, 0, 0, 0, 0, 0, 0, 0, 0, 0, 0, 0, 0, 0, 0, 0, 0, 0
0, 0, 60, 2, 2, 6, 13, 27, 27, 47, 135, 99, 116, 151, 166, 189, 196, 225, 228, 262, 239, 275, 231, 259, 252, 236, 223, 231, 193, 226, 191, 190, 189, 143, 178, 165, 139, 126, 127, 96, 91, 64, 82, 51, 42, 26, 0, 0, 0, 0, 0, 0, 0, 0, 0, 0, 0, 0, 0, 0, 0, 0, 0, 0, 0, 0, 0, 0, 0, 0, 0, 0, 0, 0, 0, 0, 0, 0, 0, 0, 0, 0, 0, 0, 0, 0, 0, 0, 0, 0, 0, 0, 0, 0, 0, 0, 0, 0, 0, 0, 0, 0, 0, 0, 0, 0
0, 0, 61, 0, 2, 8, 13, 28, 44, 59, 131, 112, 123, 137, 169, 181, 203, 207, 229, 250, 279, 237, 259, 256, 232, 207, 232, 197, 217, 187, 200, 173, 195, 197, 175, 133, 153, 122, 134, 104, 81, 71, 79, 43, 39, 18, 1, 0, 0, 0, 0, 0, 0, 0, 0, 0, 0, 0, 0, 0, 0, 0, 0, 0, 0, 0, 0, 0, 0, 0, 0, 0, 0, 0, 0, 0, 0, 0, 0, 0, 0, 0, 0, 0, 0, 0, 0, 0, 0, 0, 0, 0, 0, 0, 0, 0, 0, 0, 0, 0, 0, 0, 0, 0, 0, 0
0, 0, 62, 6, 5, 5, 10, 24, 29, 49, 103, 111, 132, 134, 173, 187, 195, 211, 208, 203, 231, 243, 245, 231, 242, 244, 230, 209, 246, 214, 171, 190, 174, 160, 166, 137, 134, 112, 107, 113, 75, 77, 78, 45, 47, 22, 2, 0, 0, 0, 0, 0, 0, 0, 0, 0, 0, 0, 0, 0, 0, 0, 0, 0, 0, 0, 0, 0, 0, 0, 0, 0, 0, 0, 0, 0, 0, 0, 0, 0, 0, 0, 0, 0, 0, 0, 0, 0, 0, 0, 0, 0, 0, 0, 0, 0, 0, 0, 0, 0, 0, 0, 0, 0, 0, 0
0, 0, 63, 4, 5, 9, 14, 16, 48, 72, 114, 92, 117, 128, 173, 196, 178, 192, 272, 260, 270, 247, 287, 253, 237, 251, 236, 236, 206, 205, 175, 204, 186, 163, 171, 130, 130, 130, 95, 120, 92, 82, 65, 57, 29, 15, 0, 0, 0, 0, 0, 0, 0, 0, 0, 0, 0, 0, 0, 0, 0, 0, 0, 0, 0, 0, 0, 0, 0, 0, 0, 0, 0, 0, 0, 0, 0, 0, 0, 0, 0, 0, 0, 0, 0, 0, 0, 0, 0, 0, 0, 0, 0, 0, 0, 0, 0, 0, 0, 0, 0, 0, 0, 0, 0, 0
0, 0, 64, 3, 4, 6, 18, 26, 44, 48, 128, 96, 119, 145, 192, 192, 214, 217, 222, 250, 252, 287, 267, 234, 232, 268, 237, 222, 218, 227, 192, 192, 168, 192, 168, 144, 113, 122, 108, 108, 105, 60, 59, 34, 43, 19, 1, 0, 0, 0, 0, 0, 0, 0, 0, 0, 0, 0, 0, 0, 0, 0, 0, 0, 0, 0, 0, 0, 0, 0, 0, 0, 0, 0, 0, 0, 0, 0, 0, 0, 0, 0, 0, 0, 0, 0, 0, 0, 0, 0, 0, 0, 0, 0, 0, 0, 0, 0, 0, 0, 0, 0, 0, 0, 0, 0
0, 0, 65, 4, 8, 6, 13, 31, 33, 62, 143, 92, 131, 145, 198, 221, 216, 233, 258, 233, 238, 261, 250, 264, 266, 265, 218, 254, 188, 217, 169, 176, 199, 193, 167, 138, 130, 150, 143, 107, 97, 87, 65, 55, 37, 26, 1, 0, 0, 0, 0, 0, 0, 0, 0, 0, 0, 0, 0, 0, 0, 0, 0, 0, 0, 0, 0, 0, 0, 0, 0, 0, 0, 0, 0, 0, 0, 0, 0, 0, 0, 0, 0, 0, 0, 0, 0, 0, 0, 0, 0, 0, 0, 0, 0, 0, 0, 0, 0, 0, 0, 0, 0, 0, 0, 0
0, 0, 66, 0, 5, 9, 8, 29, 36, 55, 125, 77, 133, 162, 185, 184, 205, 238, 214, 243, 239, 232, 238, 277, 255, 230, 249, 206, 207, 197, 179, 186, 190, 160, 168, 140, 129, 142, 112, 87, 101, 79, 51, 57, 32, 24, 1, 0, 0, 0, 0, 0, 0, 0, 0, 0, 0, 0, 0, 0, 0, 0, 0, 0, 0, 0, 0, 0, 0, 0, 0, 0, 0, 0, 0, 0, 0, 0, 0, 0, 0, 0, 0, 0, 0, 0, 0, 0, 0, 0, 0, 0, 0, 0, 0, 0, 0, 0, 0, 0, 0, 0, 0, 0, 0, 0
0, 0, 67, 1, 3, 12, 17, 33, 39, 58, 119, 88, 118, 168, 158, 201, 200, 220, 223, 257, 247, 213, 229, 242, 264, 250, 248, 216, 224, 195, 192, 195, 188, 179, 130, 149, 161, 138, 115, 97, 69, 69, 64, 45, 51, 24, 3, 0, 0, 0, 0, 0, 0, 0, 0, 0, 0, 0, 0, 0, 0, 0, 0, 0, 0, 0, 0, 0, 0, 0, 0, 0, 0, 0, 0, 0, 0, 0, 0, 0, 0, 0, 0, 0, 0, 0, 0, 0, 0, 0, 0, 0, 0, 0, 0, 0, 0, 0, 0, 0, 0, 0, 0, 0, 0, 0
0, 0, 68, 2, 2, 8, 16, 24, 39, 48, 120, 93, 96, 158, 175, 182, 227, 218, 233, 250, 262, 272, 274, 264, 223, 236, 252, 271, 211, 197, 168, 188, 196, 167, 154, 146, 156, 142, 128, 104, 85, 69, 78, 48, 40, 19, 0, 0, 0, 0, 0, 0, 0, 0, 0, 0, 0, 0, 0, 0, 0, 0, 0, 0, 0, 0, 0, 0, 0, 0, 0, 0, 0, 0, 0, 0, 0, 0, 0, 0, 0, 0, 0, 0, 0, 0, 0, 0, 0, 0, 0, 0, 0, 0, 0, 0, 0, 0, 0, 0, 0, 0, 0, 0, 0, 0
0, 0, 69, 4, 9, 9, 7, 21, 39, 57, 129, 76, 97, 155, 167, 195, 209, 230, 197, 266, 247, 224, 266, 254, 274, 239, 227, 239, 175, 238, 206, 173, 198, 193, 172, 136, 153, 127, 114, 127, 95, 85, 49, 55, 37, 19, 1, 0, 0, 0, 0, 0, 0, 0, 0, 0, 0, 0, 0, 0, 0, 0, 0, 0, 0, 0, 0, 0, 0, 0, 0, 0, 0, 0, 0, 0, 0, 0, 0, 0, 0, 0, 0, 0, 0, 0, 0, 0, 0, 0, 0, 0, 0, 0, 0, 0, 0, 0, 0, 0, 0, 0, 0, 0, 0, 0
0, 0, 70, 1, 5, 8, 16, 37, 37, 56, 126, 92, 98, 150, 165, 172, 211, 214, 242, 248, 258, 230, 253, 215, 252, 221, 228, 218, 219, 188, 217, 193, 177, 175, 159, 154, 135, 113, 111, 118, 81, 83, 76, 49, 38, 28, 0, 0, 0, 0, 0, 0, 0, 0, 0, 0, 0, 0, 0, 0, 0, 0, 0, 0, 0, 0, 0, 0, 0, 0, 0, 0, 0, 0, 0, 0, 0, 0, 0, 0, 0, 0, 0, 0, 0, 0, 0, 0, 0, 0, 0, 0, 0, 0, 0, 0, 0, 0, 0, 0, 0, 0, 0, 0, 0, 0
0, 0, 71, 2, 3, 9, 13, 21, 33, 58, 110, 91, 95, 136, 184, 181, 201, 226, 211, 219, 229, 253, 254, 256, 234, 226, 215, 254, 214, 216, 190, 182, 159, 162, 151, 126, 164, 146, 106, 98, 87, 68, 63, 61, 44, 21, 0, 0, 0, 0, 0, 0, 0, 0, 0, 0, 0, 0, 0, 0, 0, 0, 0, 0, 0, 0, 0, 0, 0, 0, 0, 0, 0, 0, 0, 0, 0, 0, 0, 0, 0, 0, 0, 0, 0, 0, 0, 0, 0, 0, 0, 0, 0, 0, 0, 0, 0, 0, 0, 0, 0, 0, 0, 0, 0, 0
0, 0, 72, 2, 7, 5, 20, 26, 35, 65, 141, 83, 107, 150, 167, 207, 181, 215, 239, 232, 228, 248, 270, 278, 273, 280, 212, 240, 212, 208, 227, 199, 173, 182, 153, 114, 117, 109, 123, 109, 94, 90, 81, 52, 34, 21, 4, 0, 0, 0, 0, 0, 0, 0, 0, 0, 0, 0, 0, 0, 0, 0, 0, 0, 0, 0, 0, 0, 0, 0, 0, 0, 0, 0, 0, 0, 0, 0, 0, 0, 0, 0, 0, 0, 0, 0, 0, 0, 0, 0, 0, 0, 0, 0, 0, 0, 0, 0, 0, 0, 0, 0, 0, 0, 0, 0
0, 0, 73, 0, 3, 12, 10, 22, 35, 60, 95, 80, 100, 147, 166, 179, 199, 213, 231, 222, 277, 249, 287, 232, 233, 247, 222, 228, 215, 205, 166, 176, 178, 152, 151, 155, 136, 110, 119, 124, 113, 84, 76, 58, 36, 18, 1, 0, 0, 0, 0, 0, 0, 0, 0, 0, 0, 0, 0, 0, 0, 0, 0, 0, 0, 0, 0, 0, 0, 0, 0, 0, 0, 0, 0, 0, 0, 0, 0, 0, 0, 0, 0, 0, 0, 0, 0, 0, 0, 0, 0, 0, 0, 0, 0, 0, 0, 0, 0, 0, 0, 0, 0, 0, 0, 0
0, 0, 74, 2, 4, 6, 8, 25, 38, 55, 119, 101, 114, 142, 168, 185, 182, 205, 230, 228, 237, 243, 275, 267, 238, 240, 244, 218, 207, 187, 205, 200, 179, 165, 166, 154, 137, 136, 128, 105, 87, 80, 72, 61, 36, 25, 0, 0, 0, 0, 0, 0, 0, 0, 0, 0, 0, 0, 0, 0, 0, 0, 0, 0, 0, 0, 0, 0, 0, 0, 0, 0, 0, 0, 0, 0, 0, 0, 0, 0, 0, 0, 0, 0, 0, 0, 0, 0, 0, 0, 0, 0, 0, 0, 0, 0, 0, 0, 0, 0, 0, 0, 0, 0, 0, 0
0, 0, 75, 1, 1, 10, 19, 24, 29, 66, 116, 103, 116, 142, 164, 203, 212, 187, 211, 217, 282, 250, 245, 240, 258, 227, 228, 230, 210, 220, 189, 162, 181, 191, 174, 147, 150, 119, 116, 107, 83, 91, 64, 53, 24, 26, 1, 0, 0, 0, 0, 0, 0, 0, 0, 0, 0, 0, 0, 0, 0, 0, 0, 0, 0, 0, 0, 0, 0, 0, 0, 0, 0, 0, 0, 0, 0, 0, 0, 0, 0, 0, 0, 0, 0, 0, 0, 0, 0, 0, 0, 0, 0, 0, 0, 0, 0, 0, 0, 0, 0, 0, 0, 0, 0, 0
0, 0, 76, 3, 3, 8, 21, 18, 51, 55, 113, 103, 114, 146, 174, 200, 218, 230, 242, 250, 229, 242, 264, 230, 226, 243, 286, 237, 241, 222, 190, 216, 167, 153, 181, 175, 129, 95, 96, 104, 67, 70, 47, 42, 42, 22, 2, 0, 0, 0, 0, 0, 0, 0, 0, 0, 0, 0, 0, 0, 0, 0, 0, 0, 0, 0, 0, 0, 0, 0, 0, 0, 0, 0, 0, 0, 0, 0, 0, 0, 0, 0, 0, 0, 0, 0, 0, 0, 0, 0, 0, 0, 0, 0, 0, 0, 0, 0, 0, 0, 0, 0, 0, 0, 0, 0
0, 0, 77, 2, 3, 7, 16, 40, 43, 52, 117, 88, 127, 156, 174, 207, 194, 217, 212, 227, 231, 255, 248, 254, 256, 262, 214, 201, 196, 233, 201, 210, 186, 184, 153, 150, 146, 153, 100, 89, 103, 73, 54, 49, 30, 30, 2, 0, 0, 0, 0, 0, 0, 0, 0, 0, 0, 0, 0, 0, 0, 0, 0, 0, 0, 0, 0, 0, 0, 0, 0, 0, 0, 0, 0, 0, 0, 0, 0, 0, 0, 0, 0, 0, 0, 0, 0, 0, 0, 0, 0, 0, 0, 0, 0, 0, 0, 0, 0, 0, 0, 0, 0, 0, 0, 0
