# TOPAS Version: 3.1.p3
# Parameter File: REDLEN_small_phantom_mc_basic_4cm.txt
# Results for scorer PhantomDose
# Scored on surface: CdTeCrystal1/YPlusSurface
# X in 100 bins of 0.03332 cm
# Y in 1 bin  of 0.4 cm
# Z in 100 bins of 0.0375 cm
# SurfaceTrackCount : Sum   
# Binned by incident track energy in 100 bins of 0.00104 MeV from 0.016 MeV to 0.12 MeV
# First bin is underflow, next to last bin is overflow, last bin is for case of no incident track.
0, 0, 0, 0, 0, 1, 0, 0, 1, 1, 0, 0, 0, 0, 2, 1, 2, 2, 2, 3, 2, 0, 3, 0, 1, 2, 0, 2, 1, 1, 2, 2, 1, 2, 1, 4, 0, 0, 1, 1, 0, 0, 1, 0, 0, 0, 0, 0, 0, 0, 0, 0, 0, 0, 0, 0, 0, 0, 0, 0, 0, 0, 0, 0, 0, 0, 0, 0, 0, 0, 0, 0, 0, 0, 0, 0, 0, 0, 0, 0, 0, 0, 0, 0, 0, 0, 0, 0, 0, 0, 0, 0, 0, 0, 0, 0, 0, 0, 0, 0, 0, 0, 0, 0, 0, 0
0, 0, 1, 0, 0, 0, 0, 0, 0, 1, 0, 0, 0, 0, 2, 0, 2, 2, 1, 1, 4, 3, 0, 6, 1, 1, 1, 1, 3, 6, 4, 2, 1, 6, 2, 1, 3, 0, 1, 2, 2, 3, 0, 0, 0, 0, 0, 0, 0, 0, 0, 0, 0, 0, 0, 0, 0, 0, 0, 0, 0, 0, 0, 0, 0, 0, 0, 0, 0, 0, 0, 0, 0, 0, 0, 0, 0, 0, 0, 0, 0, 0, 0, 0, 0, 0, 0, 0, 0, 0, 0, 0, 0, 0, 0, 0, 0, 0, 0, 0, 0, 0, 0, 0, 0, 0
0, 0, 2, 3, 0, 0, 0, 0, 0, 0, 0, 0, 2, 1, 0, 1, 4, 3, 1, 1, 4, 3, 2, 5, 1, 1, 3, 5, 7, 1, 5, 3, 0, 0, 1, 0, 0, 1, 2, 0, 0, 1, 0, 0, 0, 0, 0, 0, 0, 0, 0, 0, 0, 0, 0, 0, 0, 0, 0, 0, 0, 0, 0, 0, 0, 0, 0, 0, 0, 0, 0, 0, 0, 0, 0, 0, 0, 0, 0, 0, 0, 0, 0, 0, 0, 0, 0, 0, 0, 0, 0, 0, 0, 0, 0, 0, 0, 0, 0, 0, 0, 0, 0, 0, 0, 0
0, 0, 3, 2, 0, 0, 0, 0, 0, 0, 1, 3, 0, 0, 1, 1, 3, 0, 2, 1, 4, 1, 1, 1, 1, 1, 2, 1, 4, 0, 3, 3, 1, 0, 4, 2, 1, 1, 2, 1, 2, 2, 1, 0, 1, 0, 0, 0, 0, 0, 0, 0, 0, 0, 0, 0, 0, 0, 0, 0, 0, 0, 0, 0, 0, 0, 0, 0, 0, 0, 0, 0, 0, 0, 0, 0, 0, 0, 0, 0, 0, 0, 0, 0, 0, 0, 0, 0, 0, 0, 0, 0, 0, 0, 0, 0, 0, 0, 0, 0, 0, 0, 0, 0, 0, 0
0, 0, 4, 3, 0, 0, 0, 0, 0, 1, 0, 1, 1, 3, 0, 5, 3, 1, 0, 1, 0, 0, 5, 4, 2, 1, 0, 3, 3, 5, 4, 1, 1, 3, 1, 0, 3, 2, 1, 0, 2, 2, 1, 0, 0, 0, 0, 0, 0, 0, 0, 0, 0, 0, 0, 0, 0, 0, 0, 0, 0, 0, 0, 0, 0, 0, 0, 0, 0, 0, 0, 0, 0, 0, 0, 0, 0, 0, 0, 0, 0, 0, 0, 0, 0, 0, 0, 0, 0, 0, 0, 0, 0, 0, 0, 0, 0, 0, 0, 0, 0, 0, 0, 0, 0, 0
0, 0, 5, 3, 4, 5, 3, 10, 20, 30, 58, 41, 59, 60, 63, 90, 83, 85, 94, 96, 92, 110, 128, 133, 101, 98, 93, 98, 75, 95, 93, 85, 78, 61, 91, 65, 57, 55, 47, 38, 45, 27, 30, 27, 12, 8, 0, 0, 0, 0, 0, 0, 0, 0, 0, 0, 0, 0, 0, 0, 0, 0, 0, 0, 0, 0, 0, 0, 0, 0, 0, 0, 0, 0, 0, 0, 0, 0, 0, 0, 0, 0, 0, 0, 0, 0, 0, 0, 0, 0, 0, 0, 0, 0, 0, 0, 0, 0, 0, 0, 0, 0, 0, 0, 0, 0
0, 0, 6, 3, 3, 10, 21, 22, 41, 61, 109, 90, 102, 143, 158, 194, 230, 208, 227, 262, 255, 256, 259, 243, 264, 247, 226, 223, 188, 206, 198, 194, 154, 180, 185, 143, 126, 112, 95, 116, 101, 76, 51, 39, 31, 20, 1, 0, 0, 0, 0, 0, 0, 0, 0, 0, 0, 0, 0, 0, 0, 0, 0, 0, 0, 0, 0, 0, 0, 0, 0, 0, 0, 0, 0, 0, 0, 0, 0, 0, 0, 0, 0, 0, 0, 0, 0, 0, 0, 0, 0, 0, 0, 0, 0, 0, 0, 0, 0, 0, 0, 0, 0, 0, 0, 0
0, 0, 7, 2, 4, 12, 12, 22, 35, 52, 133, 112, 112, 145, 169, 223, 210, 211, 211, 193, 213, 263, 233, 241, 230, 232, 227, 247, 225, 213, 195, 186, 168, 136, 145, 130, 135, 133, 119, 118, 96, 68, 53, 56, 35, 18, 0, 0, 0, 0, 0, 0, 0, 0, 0, 0, 0, 0, 0, 0, 0, 0, 0, 0, 0, 0, 0, 0, 0, 0, 0, 0, 0, 0, 0, 0, 0, 0, 0, 0, 0, 0, 0, 0, 0, 0, 0, 0, 0, 0, 0, 0, 0, 0, 0, 0, 0, 0, 0, 0, 0, 0, 0, 0, 0, 0
0, 0, 8, 8, 1, 13, 6, 31, 45, 36, 123, 92, 98, 166, 185, 211, 198, 226, 238, 231, 256, 259, 260, 241, 217, 248, 241, 224, 229, 190, 213, 203, 180, 163, 159, 146, 129, 127, 97, 106, 80, 83, 69, 57, 49, 29, 3, 0, 0, 0, 0, 0, 0, 0, 0, 0, 0, 0, 0, 0, 0, 0, 0, 0, 0, 0, 0, 0, 0, 0, 0, 0, 0, 0, 0, 0, 0, 0, 0, 0, 0, 0, 0, 0, 0, 0, 0, 0, 0, 0, 0, 0, 0, 0, 0, 0, 0, 0, 0, 0, 0, 0, 0, 0, 0, 0
0, 0, 9, 1, 3, 7, 8, 16, 42, 55, 130, 97, 121, 127, 186, 182, 173, 230, 240, 220, 272, 232, 256, 268, 230, 251, 237, 252, 214, 220, 208, 182, 179, 183, 157, 159, 134, 124, 111, 100, 90, 94, 82, 60, 37, 28, 1, 0, 0, 0, 0, 0, 0, 0, 0, 0, 0, 0, 0, 0, 0, 0, 0, 0, 0, 0, 0, 0, 0, 0, 0, 0, 0, 0, 0, 0, 0, 0, 0, 0, 0, 0, 0, 0, 0, 0, 0, 0, 0, 0, 0, 0, 0, 0, 0, 0, 0, 0, 0, 0, 0, 0, 0, 0, 0, 0
0, 0, 10, 5, 4, 5, 10, 26, 47, 57, 117, 99, 111, 136, 195, 165, 192, 194, 226, 222, 276, 228, 275, 238, 220, 265, 219, 209, 239, 213, 206, 172, 198, 199, 152, 145, 146, 125, 124, 85, 92, 71, 88, 63, 42, 29, 2, 0, 0, 0, 0, 0, 0, 0, 0, 0, 0, 0, 0, 0, 0, 0, 0, 0, 0, 0, 0, 0, 0, 0, 0, 0, 0, 0, 0, 0, 0, 0, 0, 0, 0, 0, 0, 0, 0, 0, 0, 0, 0, 0, 0, 0, 0, 0, 0, 0, 0, 0, 0, 0, 0, 0, 0, 0, 0, 0
0, 0, 11, 1, 2, 7, 12, 26, 47, 59, 115, 92, 134, 151, 184, 199, 221, 216, 230, 235, 246, 235, 272, 242, 226, 226, 249, 203, 222, 238, 180, 185, 172, 181, 155, 154, 149, 143, 102, 116, 87, 84, 67, 52, 54, 16, 1, 0, 0, 0, 0, 0, 0, 0, 0, 0, 0, 0, 0, 0, 0, 0, 0, 0, 0, 0, 0, 0, 0, 0, 0, 0, 0, 0, 0, 0, 0, 0, 0, 0, 0, 0, 0, 0, 0, 0, 0, 0, 0, 0, 0, 0, 0, 0, 0, 0, 0, 0, 0, 0, 0, 0, 0, 0, 0, 0
0, 0, 12, 6, 3, 11, 11, 27, 31, 50, 121, 82, 98, 155, 171, 197, 207, 193, 212, 212, 246, 244, 246, 243, 268, 216, 256, 178, 191, 194, 181, 180, 166, 140, 132, 142, 124, 129, 108, 105, 89, 74, 82, 50, 41, 28, 2, 0, 0, 0, 0, 0, 0, 0, 0, 0, 0, 0, 0, 0, 0, 0, 0, 0, 0, 0, 0, 0, 0, 0, 0, 0, 0, 0, 0, 0, 0, 0, 0, 0, 0, 0, 0, 0, 0, 0, 0, 0, 0, 0, 0, 0, 0, 0, 0, 0, 0, 0, 0, 0, 0, 0, 0, 0, 0, 0
0, 0, 13, 8, 3, 10, 21, 25, 47, 51, 113, 85, 110, 150, 174, 196, 199, 229, 217, 262, 237, 235, 248, 277, 252, 186, 202, 228, 232, 218, 186, 190, 168, 153, 128, 155, 147, 115, 111, 117, 80, 64, 64, 54, 37, 24, 1, 0, 0, 0, 0, 0, 0, 0, 0, 0, 0, 0, 0, 0, 0, 0, 0, 0, 0, 0, 0, 0, 0, 0, 0, 0, 0, 0, 0, 0, 0, 0, 0, 0, 0, 0, 0, 0, 0, 0, 0, 0, 0, 0, 0, 0, 0, 0, 0, 0, 0, 0, 0, 0, 0, 0, 0, 0, 0, 0
0, 0, 14, 1, 4, 11, 13, 26, 50, 48, 101, 78, 148, 139, 196, 194, 195, 228, 183, 218, 222, 257, 218, 202, 231, 241, 245, 238, 232, 211, 222, 195, 182, 175, 143, 130, 142, 120, 120, 108, 73, 79, 55, 48, 46, 20, 1, 0, 0, 0, 0, 0, 0, 0, 0, 0, 0, 0, 0, 0, 0, 0, 0, 0, 0, 0, 0, 0, 0, 0, 0, 0, 0, 0, 0, 0, 0, 0, 0, 0, 0, 0, 0, 0, 0, 0, 0, 0, 0, 0, 0, 0, 0, 0, 0, 0, 0, 0, 0, 0, 0, 0, 0, 0, 0, 0
0, 0, 15, 3, 6, 1, 13, 21, 40, 51, 120, 112, 115, 130, 185, 202, 212, 225, 228, 260, 233, 237, 256, 260, 264, 216, 205, 216, 216, 225, 197, 152, 179, 180, 186, 151, 129, 113, 103, 109, 86, 76, 58, 64, 45, 18, 0, 0, 0, 0, 0, 0, 0, 0, 0, 0, 0, 0, 0, 0, 0, 0, 0, 0, 0, 0, 0, 0, 0, 0, 0, 0, 0, 0, 0, 0, 0, 0, 0, 0, 0, 0, 0, 0, 0, 0, 0, 0, 0, 0, 0, 0, 0, 0, 0, 0, 0, 0, 0, 0, 0, 0, 0, 0, 0, 0
0, 0, 16, 5, 3, 10, 15, 27, 37, 63, 112, 68, 122, 168, 181, 198, 209, 183, 230, 236, 267, 238, 260, 275, 250, 230, 217, 227, 239, 211, 225, 174, 167, 193, 174, 164, 122, 143, 93, 97, 91, 63, 62, 42, 41, 26, 2, 0, 0, 0, 0, 0, 0, 0, 0, 0, 0, 0, 0, 0, 0, 0, 0, 0, 0, 0, 0, 0, 0, 0, 0, 0, 0, 0, 0, 0, 0, 0, 0, 0, 0, 0, 0, 0, 0, 0, 0, 0, 0, 0, 0, 0, 0, 0, 0, 0, 0, 0, 0, 0, 0, 0, 0, 0, 0, 0
0, 0, 17, 3, 5, 6, 11, 35, 33, 52, 123, 92, 111, 149, 173, 146, 198, 199, 229, 231, 269, 262, 251, 223, 239, 252, 210, 204, 202, 206, 178, 195, 179, 196, 162, 152, 152, 133, 119, 107, 83, 75, 72, 55, 36, 18, 2, 0, 0, 0, 0, 0, 0, 0, 0, 0, 0, 0, 0, 0, 0, 0, 0, 0, 0, 0, 0, 0, 0, 0, 0, 0, 0, 0, 0, 0, 0, 0, 0, 0, 0, 0, 0, 0, 0, 0, 0, 0, 0, 0, 0, 0, 0, 0, 0, 0, 0, 0, 0, 0, 0, 0, 0, 0, 0, 0
0, 0, 18, 5, 6, 8, 11, 24, 33, 69, 142, 107, 103, 132, 177, 186, 196, 224, 231, 247, 273, 232, 260, 215, 256, 225, 220, 234, 208, 201, 210, 208, 189, 172, 169, 153, 145, 130, 105, 109, 82, 68, 66, 59, 45, 18, 2, 0, 0, 0, 0, 0, 0, 0, 0, 0, 0, 0, 0, 0, 0, 0, 0, 0, 0, 0, 0, 0, 0, 0, 0, 0, 0, 0, 0, 0, 0, 0, 0, 0, 0, 0, 0, 0, 0, 0, 0, 0, 0, 0, 0, 0, 0, 0, 0, 0, 0, 0, 0, 0, 0, 0, 0, 0, 0, 0
0, 0, 19, 3, 2, 10, 14, 36, 31, 53, 109, 99, 124, 136, 163, 221, 197, 234, 209, 212, 253, 257, 268, 248, 268, 209, 207, 220, 245, 212, 217, 201, 203, 171, 170, 125, 131, 125, 115, 101, 96, 84, 53, 48, 42, 22, 1, 0, 0, 0, 0, 0, 0, 0, 0, 0, 0, 0, 0, 0, 0, 0, 0, 0, 0, 0, 0, 0, 0, 0, 0, 0, 0, 0, 0, 0, 0, 0, 0, 0, 0, 0, 0, 0, 0, 0, 0, 0, 0, 0, 0, 0, 0, 0, 0, 0, 0, 0, 0, 0, 0, 0, 0, 0, 0, 0
0, 0, 20, 3, 4, 8, 14, 25, 43, 40, 117, 112, 123, 130, 167, 194, 223, 226, 273, 193, 217, 238, 248, 268, 275, 267, 220, 212, 216, 208, 196, 191, 166, 147, 156, 154, 126, 139, 89, 105, 90, 95, 64, 58, 33, 20, 0, 0, 0, 0, 0, 0, 0, 0, 0, 0, 0, 0, 0, 0, 0, 0, 0, 0, 0, 0, 0, 0, 0, 0, 0, 0, 0, 0, 0, 0, 0, 0, 0, 0, 0, 0, 0, 0, 0, 0, 0, 0, 0, 0, 0, 0, 0, 0, 0, 0, 0, 0, 0, 0, 0, 0, 0, 0, 0, 0
0, 0, 21, 0, 4, 8, 14, 25, 44, 67, 127, 82, 126, 157, 149, 196, 200, 210, 226, 209, 286, 235, 268, 254, 257, 242, 215, 217, 196, 194, 203, 172, 159, 196, 141, 141, 146, 136, 119, 109, 85, 91, 61, 64, 32, 12, 1, 0, 0, 0, 0, 0, 0, 0, 0, 0, 0, 0, 0, 0, 0, 0, 0, 0, 0, 0, 0, 0, 0, 0, 0, 0, 0, 0, 0, 0, 0, 0, 0, 0, 0, 0, 0, 0, 0, 0, 0, 0, 0, 0, 0, 0, 0, 0, 0, 0, 0, 0, 0, 0, 0, 0, 0, 0, 0, 0
0, 0, 22, 0, 4, 8, 18, 25, 40, 69, 136, 105, 116, 131, 170, 187, 208, 189, 218, 229, 254, 232, 252, 261, 271, 242, 250, 239, 203, 195, 223, 201, 168, 170, 163, 130, 138, 139, 109, 113, 96, 70, 70, 38, 46, 22, 0, 0, 0, 0, 0, 0, 0, 0, 0, 0, 0, 0, 0, 0, 0, 0, 0, 0, 0, 0, 0, 0, 0, 0, 0, 0, 0, 0, 0, 0, 0, 0, 0, 0, 0, 0, 0, 0, 0, 0, 0, 0, 0, 0, 0, 0, 0, 0, 0, 0, 0, 0, 0, 0, 0, 0, 0, 0, 0, 0
0, 0, 23, 4, 3, 7, 16, 33, 28, 55, 98, 85, 121, 137, 176, 191, 214, 193, 254, 270, 251, 296, 219, 232, 239, 215, 203, 231, 208, 206, 177, 206, 182, 188, 156, 153, 139, 126, 103, 99, 88, 79, 78, 71, 51, 25, 0, 0, 0, 0, 0, 0, 0, 0, 0, 0, 0, 0, 0, 0, 0, 0, 0, 0, 0, 0, 0, 0, 0, 0, 0, 0, 0, 0, 0, 0, 0, 0, 0, 0, 0, 0, 0, 0, 0, 0, 0, 0, 0, 0, 0, 0, 0, 0, 0, 0, 0, 0, 0, 0, 0, 0, 0, 0, 0, 0
0, 0, 24, 6, 4, 10, 17, 21, 45, 54, 124, 85, 138, 150, 159, 211, 190, 196, 221, 258, 237, 229, 241, 202, 234, 234, 218, 245, 217, 203, 203, 194, 162, 144, 150, 157, 137, 130, 109, 110, 76, 77, 68, 55, 42, 29, 3, 0, 0, 0, 0, 0, 0, 0, 0, 0, 0, 0, 0, 0, 0, 0, 0, 0, 0, 0, 0, 0, 0, 0, 0, 0, 0, 0, 0, 0, 0, 0, 0, 0, 0, 0, 0, 0, 0, 0, 0, 0, 0, 0, 0, 0, 0, 0, 0, 0, 0, 0, 0, 0, 0, 0, 0, 0, 0, 0
0, 0, 25, 3, 3, 5, 21, 24, 36, 61, 122, 88, 119, 134, 172, 196, 217, 221, 267, 234, 233, 249, 262, 226, 225, 223, 235, 222, 212, 224, 178, 182, 171, 165, 168, 153, 129, 116, 113, 106, 90, 84, 64, 35, 39, 19, 1, 0, 0, 0, 0, 0, 0, 0, 0, 0, 0, 0, 0, 0, 0, 0, 0, 0, 0, 0, 0, 0, 0, 0, 0, 0, 0, 0, 0, 0, 0, 0, 0, 0, 0, 0, 0, 0, 0, 0, 0, 0, 0, 0, 0, 0, 0, 0, 0, 0, 0, 0, 0, 0, 0, 0, 0, 0, 0, 0
0, 0, 26, 2, 4, 10, 15, 22, 35, 51, 122, 93, 113, 138, 184, 189, 190, 201, 233, 224, 236, 266, 232, 253, 221, 216, 246, 225, 193, 203, 186, 205, 151, 162, 168, 129, 138, 119, 137, 109, 82, 82, 56, 45, 36, 26, 1, 0, 0, 0, 0, 0, 0, 0, 0, 0, 0, 0, 0, 0, 0, 0, 0, 0, 0, 0, 0, 0, 0, 0, 0, 0, 0, 0, 0, 0, 0, 0, 0, 0, 0, 0, 0, 0, 0, 0, 0, 0, 0, 0, 0, 0, 0, 0, 0, 0, 0, 0, 0, 0, 0, 0, 0, 0, 0, 0
0, 0, 27, 9, 5, 7, 13, 24, 49, 48, 115, 87, 135, 150, 156, 178, 216, 226, 210, 250, 244, 240, 265, 230, 218, 211, 200, 214, 247, 219, 185, 182, 204, 181, 154, 161, 139, 129, 123, 92, 76, 89, 74, 60, 33, 15, 2, 0, 0, 0, 0, 0, 0, 0, 0, 0, 0, 0, 0, 0, 0, 0, 0, 0, 0, 0, 0, 0, 0, 0, 0, 0, 0, 0, 0, 0, 0, 0, 0, 0, 0, 0, 0, 0, 0, 0, 0, 0, 0, 0, 0, 0, 0, 0, 0, 0, 0, 0, 0, 0, 0, 0, 0, 0, 0, 0
0, 0, 28, 10, 2, 9, 20, 25, 47, 51, 117, 94, 100, 146, 173, 181, 227, 197, 252, 240, 236, 227, 254, 225, 255, 250, 229, 203, 218, 203, 184, 217, 183, 167, 164, 147, 122, 146, 122, 97, 100, 93, 58, 57, 49, 25, 2, 0, 0, 0, 0, 0, 0, 0, 0, 0, 0, 0, 0, 0, 0, 0, 0, 0, 0, 0, 0, 0, 0, 0, 0, 0, 0, 0, 0, 0, 0, 0, 0, 0, 0, 0, 0, 0, 0, 0, 0, 0, 0, 0, 0, 0, 0, 0, 0, 0, 0, 0, 0, 0, 0, 0, 0, 0, 0, 0
0, 0, 29, 3, 2, 10, 10, 21, 49, 54, 135, 77, 89, 145, 180, 201, 208, 211, 235, 246, 233, 240, 262, 267, 242, 234, 267, 239, 194, 213, 185, 171, 195, 182, 165, 143, 128, 126, 133, 86, 87, 103, 87, 50, 30, 14, 0, 0, 0, 0, 0, 0, 0, 0, 0, 0, 0, 0, 0, 0, 0, 0, 0, 0, 0, 0, 0, 0, 0, 0, 0, 0, 0, 0, 0, 0, 0, 0, 0, 0, 0, 0, 0, 0, 0, 0, 0, 0, 0, 0, 0, 0, 0, 0, 0, 0, 0, 0, 0, 0, 0, 0, 0, 0, 0, 0
0, 0, 30, 4, 6, 7, 18, 17, 45, 54, 102, 101, 114, 155, 169, 219, 186, 221, 210, 270, 276, 237, 253, 258, 254, 249, 241, 211, 227, 215, 219, 180, 187, 148, 161, 159, 143, 119, 122, 106, 92, 76, 67, 52, 34, 23, 1, 0, 0, 0, 0, 0, 0, 0, 0, 0, 0, 0, 0, 0, 0, 0, 0, 0, 0, 0, 0, 0, 0, 0, 0, 0, 0, 0, 0, 0, 0, 0, 0, 0, 0, 0, 0, 0, 0, 0, 0, 0, 0, 0, 0, 0, 0, 0, 0, 0, 0, 0, 0, 0, 0, 0, 0, 0, 0, 0
0, 0, 31, 0, 6, 10, 16, 25, 40, 53, 104, 91, 112, 154, 191, 209, 206, 194, 209, 223, 225, 229, 246, 253, 204, 221, 238, 246, 225, 192, 195, 215, 217, 147, 185, 174, 128, 133, 118, 98, 110, 73, 69, 57, 43, 13, 2, 0, 0, 0, 0, 0, 0, 0, 0, 0, 0, 0, 0, 0, 0, 0, 0, 0, 0, 0, 0, 0, 0, 0, 0, 0, 0, 0, 0, 0, 0, 0, 0, 0, 0, 0, 0, 0, 0, 0, 0, 0, 0, 0, 0, 0, 0, 0, 0, 0, 0, 0, 0, 0, 0, 0, 0, 0, 0, 0
0, 0, 32, 2, 1, 8, 16, 26, 41, 60, 117, 84, 109, 136, 193, 184, 192, 194, 212, 253, 239, 254, 233, 272, 215, 238, 240, 211, 213, 194, 184, 184, 199, 177, 177, 128, 173, 117, 105, 123, 93, 103, 72, 45, 38, 27, 0, 0, 0, 0, 0, 0, 0, 0, 0, 0, 0, 0, 0, 0, 0, 0, 0, 0, 0, 0, 0, 0, 0, 0, 0, 0, 0, 0, 0, 0, 0, 0, 0, 0, 0, 0, 0, 0, 0, 0, 0, 0, 0, 0, 0, 0, 0, 0, 0, 0, 0, 0, 0, 0, 0, 0, 0, 0, 0, 0
0, 0, 33, 2, 4, 8, 11, 32, 34, 58, 122, 88, 94, 159, 174, 218, 221, 213, 262, 273, 265, 249, 244, 260, 272, 234, 234, 227, 210, 198, 214, 193, 181, 169, 165, 150, 142, 146, 136, 101, 79, 71, 61, 59, 42, 16, 0, 0, 0, 0, 0, 0, 0, 0, 0, 0, 0, 0, 0, 0, 0, 0, 0, 0, 0, 0, 0, 0, 0, 0, 0, 0, 0, 0, 0, 0, 0, 0, 0, 0, 0, 0, 0, 0, 0, 0, 0, 0, 0, 0, 0, 0, 0, 0, 0, 0, 0, 0, 0, 0, 0, 0, 0, 0, 0, 0
0, 0, 34, 7, 3, 11, 12, 20, 48, 49, 119, 99, 132, 147, 163, 205, 207, 213, 245, 252, 239, 270, 232, 239, 241, 260, 209, 236, 222, 203, 193, 213, 198, 163, 155, 115, 156, 126, 117, 108, 102, 93, 72, 43, 47, 18, 2, 0, 0, 0, 0, 0, 0, 0, 0, 0, 0, 0, 0, 0, 0, 0, 0, 0, 0, 0, 0, 0, 0, 0, 0, 0, 0, 0, 0, 0, 0, 0, 0, 0, 0, 0, 0, 0, 0, 0, 0, 0, 0, 0, 0, 0, 0, 0, 0, 0, 0, 0, 0, 0, 0, 0, 0, 0, 0, 0
0, 0, 35, 0, 3, 9, 12, 28, 35, 58, 141, 85, 109, 148, 178, 189, 196, 229, 193, 220, 253, 246, 246, 199, 243, 246, 258, 221, 222, 232, 197, 177, 163, 170, 164, 147, 119, 115, 134, 95, 86, 76, 65, 56, 48, 24, 0, 0, 0, 0, 0, 0, 0, 0, 0, 0, 0, 0, 0, 0, 0, 0, 0, 0, 0, 0, 0, 0, 0, 0, 0, 0, 0, 0, 0, 0, 0, 0, 0, 0, 0, 0, 0, 0, 0, 0, 0, 0, 0, 0, 0, 0, 0, 0, 0, 0, 0, 0, 0, 0, 0, 0, 0, 0, 0, 0
0, 0, 36, 1, 4, 5, 13, 26, 51, 52, 124, 98, 151, 136, 157, 182, 202, 227, 220, 241, 264, 248, 260, 251, 266, 270, 224, 232, 214, 212, 223, 195, 181, 146, 161, 133, 104, 115, 124, 105, 83, 64, 74, 52, 45, 20, 1, 0, 0, 0, 0, 0, 0, 0, 0, 0, 0, 0, 0, 0, 0, 0, 0, 0, 0, 0, 0, 0, 0, 0, 0, 0, 0, 0, 0, 0, 0, 0, 0, 0, 0, 0, 0, 0, 0, 0, 0, 0, 0, 0, 0, 0, 0, 0, 0, 0, 0, 0, 0, 0, 0, 0, 0, 0, 0, 0
0, 0, 37, 1, 4, 5, 14, 21, 38, 68, 114, 96, 95, 150, 187, 180, 192, 195, 248, 232, 257, 260, 245, 248, 258, 264, 218, 233, 214, 211, 194, 173, 179, 159, 151, 132, 124, 116, 111, 93, 90, 84, 78, 74, 45, 20, 2, 0, 0, 0, 0, 0, 0, 0, 0, 0, 0, 0, 0, 0, 0, 0, 0, 0, 0, 0, 0, 0, 0, 0, 0, 0, 0, 0, 0, 0, 0, 0, 0, 0, 0, 0, 0, 0, 0, 0, 0, 0, 0, 0, 0, 0, 0, 0, 0, 0, 0, 0, 0, 0, 0, 0, 0, 0, 0, 0
0, 0, 38, 2, 6, 6, 13, 25, 47, 58, 114, 103, 130, 137, 190, 181, 202, 226, 220, 234, 251, 242, 243, 255, 227, 245, 236, 235, 217, 206, 198, 198, 191, 155, 172, 150, 140, 142, 119, 108, 91, 66, 53, 53, 47, 30, 1, 0, 0, 0, 0, 0, 0, 0, 0, 0, 0, 0, 0, 0, 0, 0, 0, 0, 0, 0, 0, 0, 0, 0, 0, 0, 0, 0, 0, 0, 0, 0, 0, 0, 0, 0, 0, 0, 0, 0, 0, 0, 0, 0, 0, 0, 0, 0, 0, 0, 0, 0, 0, 0, 0, 0, 0, 0, 0, 0
0, 0, 39, 7, 4, 9, 8, 28, 36, 44, 119, 80, 140, 143, 157, 196, 198, 216, 251, 246, 207, 216, 231, 206, 235, 236, 225, 229, 221, 236, 174, 206, 174, 179, 167, 138, 145, 108, 137, 99, 90, 57, 52, 55, 43, 27, 2, 0, 0, 0, 0, 0, 0, 0, 0, 0, 0, 0, 0, 0, 0, 0, 0, 0, 0, 0, 0, 0, 0, 0, 0, 0, 0, 0, 0, 0, 0, 0, 0, 0, 0, 0, 0, 0, 0, 0, 0, 0, 0, 0, 0, 0, 0, 0, 0, 0, 0, 0, 0, 0, 0, 0, 0, 0, 0, 0
0, 0, 40, 2, 8, 13, 14, 34, 35, 65, 74, 116, 130, 142, 171, 194, 228, 206, 215, 234, 224, 264, 240, 258, 258, 250, 220, 233, 208, 213, 182, 186, 171, 164, 167, 122, 135, 129, 119, 98, 108, 68, 57, 39, 26, 25, 3, 0, 0, 0, 0, 0, 0, 0, 0, 0, 0, 0, 0, 0, 0, 0, 0, 0, 0, 0, 0, 0, 0, 0, 0, 0, 0, 0, 0, 0, 0, 0, 0, 0, 0, 0, 0, 0, 0, 0, 0, 0, 0, 0, 0, 0, 0, 0, 0, 0, 0, 0, 0, 0, 0, 0, 0, 0, 0, 0
0, 0, 41, 0, 2, 9, 19, 23, 32, 50, 91, 84, 86, 137, 143, 207, 205, 191, 209, 255, 226, 253, 234, 237, 229, 235, 207, 209, 209, 198, 179, 165, 167, 147, 159, 166, 131, 91, 87, 96, 79, 75, 69, 39, 47, 25, 0, 0, 0, 0, 0, 0, 0, 0, 0, 0, 0, 0, 0, 0, 0, 0, 0, 0, 0, 0, 0, 0, 0, 0, 0, 0, 0, 0, 0, 0, 0, 0, 0, 0, 0, 0, 0, 0, 0, 0, 0, 0, 0, 0, 0, 0, 0, 0, 0, 0, 0, 0, 0, 0, 0, 0, 0, 0, 0, 0
0, 0, 42, 1, 3, 11, 14, 28, 26, 31, 72, 72, 87, 97, 122, 138, 144, 134, 153, 178, 165, 202, 186, 183, 186, 184, 190, 181, 167, 152, 156, 166, 147, 125, 108, 125, 119, 92, 91, 89, 76, 58, 53, 50, 26, 16, 0, 0, 0, 0, 0, 0, 0, 0, 0, 0, 0, 0, 0, 0, 0, 0, 0, 0, 0, 0, 0, 0, 0, 0, 0, 0, 0, 0, 0, 0, 0, 0, 0, 0, 0, 0, 0, 0, 0, 0, 0, 0, 0, 0, 0, 0, 0, 0, 0, 0, 0, 0, 0, 0, 0, 0, 0, 0, 0, 0
0, 0, 43, 0, 2, 2, 11, 12, 27, 19, 68, 65, 58, 76, 94, 136, 118, 149, 141, 141, 165, 163, 149, 161, 170, 130, 142, 120, 137, 118, 111, 120, 101, 104, 110, 104, 97, 88, 83, 56, 48, 37, 44, 33, 31, 15, 1, 0, 0, 0, 0, 0, 0, 0, 0, 0, 0, 0, 0, 0, 0, 0, 0, 0, 0, 0, 0, 0, 0, 0, 0, 0, 0, 0, 0, 0, 0, 0, 0, 0, 0, 0, 0, 0, 0, 0, 0, 0, 0, 0, 0, 0, 0, 0, 0, 0, 0, 0, 0, 0, 0, 0, 0, 0, 0, 0
0, 0, 44, 0, 1, 4, 10, 9, 13, 17, 42, 40, 37, 64, 61, 86, 90, 104, 87, 124, 84, 124, 116, 104, 112, 112, 99, 112, 114, 97, 85, 88, 94, 92, 60, 73, 71, 68, 61, 56, 42, 32, 37, 26, 25, 11, 2, 0, 0, 0, 0, 0, 0, 0, 0, 0, 0, 0, 0, 0, 0, 0, 0, 0, 0, 0, 0, 0, 0, 0, 0, 0, 0, 0, 0, 0, 0, 0, 0, 0, 0, 0, 0, 0, 0, 0, 0, 0, 0, 0, 0, 0, 0, 0, 0, 0, 0, 0, 0, 0, 0, 0, 0, 0, 0, 0
0, 0, 45, 0, 2, 1, 2, 3, 17, 19, 37, 25, 39, 44, 44, 45, 76, 63, 61, 64, 79, 68, 81, 76, 81, 92, 74, 90, 74, 61, 69, 75, 65, 67, 74, 58, 63, 49, 44, 37, 35, 38, 12, 22, 19, 15, 0, 0, 0, 0, 0, 0, 0, 0, 0, 0, 0, 0, 0, 0, 0, 0, 0, 0, 0, 0, 0, 0, 0, 0, 0, 0, 0, 0, 0, 0, 0, 0, 0, 0, 0, 0, 0, 0, 0, 0, 0, 0, 0, 0, 0, 0, 0, 0, 0, 0, 0, 0, 0, 0, 0, 0, 0, 0, 0, 0
0, 0, 46, 1, 3, 0, 4, 2, 7, 10, 22, 7, 16, 32, 32, 41, 40, 36, 42, 55, 45, 58, 73, 69, 74, 61, 65, 42, 50, 51, 63, 60, 44, 53, 36, 36, 49, 45, 30, 36, 26, 25, 16, 24, 12, 11, 1, 0, 0, 0, 0, 0, 0, 0, 0, 0, 0, 0, 0, 0, 0, 0, 0, 0, 0, 0, 0, 0, 0, 0, 0, 0, 0, 0, 0, 0, 0, 0, 0, 0, 0, 0, 0, 0, 0, 0, 0, 0, 0, 0, 0, 0, 0, 0, 0, 0, 0, 0, 0, 0, 0, 0, 0, 0, 0, 0
0, 0, 47, 1, 1, 0, 3, 1, 3, 7, 16, 10, 9, 17, 14, 23, 25, 32, 36, 40, 42, 43, 40, 58, 37, 52, 60, 49, 51, 56, 40, 42, 41, 44, 40, 38, 33, 35, 20, 23, 21, 17, 20, 19, 7, 3, 0, 0, 0, 0, 0, 0, 0, 0, 0, 0, 0, 0, 0, 0, 0, 0, 0, 0, 0, 0, 0, 0, 0, 0, 0, 0, 0, 0, 0, 0, 0, 0, 0, 0, 0, 0, 0, 0, 0, 0, 0, 0, 0, 0, 0, 0, 0, 0, 0, 0, 0, 0, 0, 0, 0, 0, 0, 0, 0, 0
0, 0, 48, 0, 0, 0, 0, 0, 4, 3, 10, 3, 4, 9, 17, 15, 13, 21, 19, 16, 17, 30, 34, 37, 32, 31, 56, 32, 33, 23, 32, 33, 43, 39, 27, 35, 21, 26, 25, 20, 24, 11, 23, 9, 12, 7, 0, 0, 0, 0, 0, 0, 0, 0, 0, 0, 0, 0, 0, 0, 0, 0, 0, 0, 0, 0, 0, 0, 0, 0, 0, 0, 0, 0, 0, 0, 0, 0, 0, 0, 0, 0, 0, 0, 0, 0, 0, 0, 0, 0, 0, 0, 0, 0, 0, 0, 0, 0, 0, 0, 0, 0, 0, 0, 0, 0
0, 0, 49, 0, 0, 0, 0, 0, 0, 0, 6, 1, 3, 4, 10, 11, 13, 21, 10, 22, 19, 32, 33, 16, 24, 24, 25, 26, 26, 26, 37, 29, 36, 26, 23, 22, 23, 12, 17, 21, 16, 19, 14, 6, 7, 5, 0, 0, 0, 0, 0, 0, 0, 0, 0, 0, 0, 0, 0, 0, 0, 0, 0, 0, 0, 0, 0, 0, 0, 0, 0, 0, 0, 0, 0, 0, 0, 0, 0, 0, 0, 0, 0, 0, 0, 0, 0, 0, 0, 0, 0, 0, 0, 0, 0, 0, 0, 0, 0, 0, 0, 0, 0, 0, 0, 0
0, 0, 50, 0, 0, 0, 1, 1, 0, 0, 3, 1, 3, 5, 12, 10, 11, 13, 14, 13, 27, 38, 26, 21, 30, 21, 31, 39, 27, 29, 28, 27, 27, 33, 20, 28, 18, 14, 17, 11, 15, 7, 11, 15, 6, 4, 0, 0, 0, 0, 0, 0, 0, 0, 0, 0, 0, 0, 0, 0, 0, 0, 0, 0, 0, 0, 0, 0, 0, 0, 0, 0, 0, 0, 0, 0, 0, 0, 0, 0, 0, 0, 0, 0, 0, 0, 0, 0, 0, 0, 0, 0, 0, 0, 0, 0, 0, 0, 0, 0, 0, 0, 0, 0, 0, 0
0, 0, 51, 0, 0, 0, 0, 1, 2, 1, 11, 0, 2, 8, 14, 15, 13, 24, 13, 24, 32, 35, 25, 34, 22, 27, 30, 33, 31, 23, 38, 33, 31, 22, 30, 29, 31, 22, 24, 22, 18, 22, 11, 16, 4, 5, 0, 0, 0, 0, 0, 0, 0, 0, 0, 0, 0, 0, 0, 0, 0, 0, 0, 0, 0, 0, 0, 0, 0, 0, 0, 0, 0, 0, 0, 0, 0, 0, 0, 0, 0, 0, 0, 0, 0, 0, 0, 0, 0, 0, 0, 0, 0, 0, 0, 0, 0, 0, 0, 0, 0, 0, 0, 0, 0, 0
0, 0, 52, 1, 0, 1, 1, 2, 7, 7, 15, 10, 8, 25, 11, 31, 26, 27, 28, 35, 39, 36, 43, 50, 59, 56, 49, 51, 54, 32, 46, 42, 42, 40, 47, 39, 42, 27, 34, 24, 18, 11, 18, 11, 5, 5, 0, 0, 0, 0, 0, 0, 0, 0, 0, 0, 0, 0, 0, 0, 0, 0, 0, 0, 0, 0, 0, 0, 0, 0, 0, 0, 0, 0, 0, 0, 0, 0, 0, 0, 0, 0, 0, 0, 0, 0, 0, 0, 0, 0, 0, 0, 0, 0, 0, 0, 0, 0, 0, 0, 0, 0, 0, 0, 0, 0
0, 0, 53, 0, 1, 3, 2, 4, 9, 14, 21, 14, 19, 25, 37, 33, 45, 45, 61, 43, 72, 55, 47, 51, 60, 62, 64, 39, 49, 59, 53, 51, 48, 57, 50, 28, 46, 49, 29, 24, 22, 23, 14, 17, 13, 12, 0, 0, 0, 0, 0, 0, 0, 0, 0, 0, 0, 0, 0, 0, 0, 0, 0, 0, 0, 0, 0, 0, 0, 0, 0, 0, 0, 0, 0, 0, 0, 0, 0, 0, 0, 0, 0, 0, 0, 0, 0, 0, 0, 0, 0, 0, 0, 0, 0, 0, 0, 0, 0, 0, 0, 0, 0, 0, 0, 0
0, 0, 54, 0, 0, 2, 5, 3, 13, 17, 28, 29, 23, 42, 58, 56, 65, 64, 62, 78, 83, 75, 74, 88, 85, 78, 92, 89, 72, 77, 64, 65, 81, 62, 58, 63, 52, 59, 46, 44, 37, 44, 27, 26, 11, 7, 2, 0, 0, 0, 0, 0, 0, 0, 0, 0, 0, 0, 0, 0, 0, 0, 0, 0, 0, 0, 0, 0, 0, 0, 0, 0, 0, 0, 0, 0, 0, 0, 0, 0, 0, 0, 0, 0, 0, 0, 0, 0, 0, 0, 0, 0, 0, 0, 0, 0, 0, 0, 0, 0, 0, 0, 0, 0, 0, 0
0, 0, 55, 0, 1, 1, 5, 16, 20, 22, 44, 40, 56, 49, 67, 66, 83, 90, 93, 88, 111, 102, 126, 105, 97, 111, 96, 116, 101, 108, 96, 96, 85, 77, 81, 89, 84, 50, 63, 55, 38, 39, 29, 19, 13, 9, 0, 0, 0, 0, 0, 0, 0, 0, 0, 0, 0, 0, 0, 0, 0, 0, 0, 0, 0, 0, 0, 0, 0, 0, 0, 0, 0, 0, 0, 0, 0, 0, 0, 0, 0, 0, 0, 0, 0, 0, 0, 0, 0, 0, 0, 0, 0, 0, 0, 0, 0, 0, 0, 0, 0, 0, 0, 0, 0, 0
0, 0, 56, 0, 2, 2, 7, 9, 19, 20, 47, 49, 75, 63, 102, 121, 117, 118, 126, 146, 143, 108, 148, 156, 128, 137, 130, 138, 130, 105, 124, 102, 106, 92, 76, 77, 75, 82, 65, 78, 61, 49, 38, 44, 26, 13, 2, 0, 0, 0, 0, 0, 0, 0, 0, 0, 0, 0, 0, 0, 0, 0, 0, 0, 0, 0, 0, 0, 0, 0, 0, 0, 0, 0, 0, 0, 0, 0, 0, 0, 0, 0, 0, 0, 0, 0, 0, 0, 0, 0, 0, 0, 0, 0, 0, 0, 0, 0, 0, 0, 0, 0, 0, 0, 0, 0
0, 0, 57, 2, 2, 7, 9, 15, 18, 40, 72, 63, 103, 82, 128, 140, 156, 153, 153, 199, 189, 159, 169, 160, 201, 193, 189, 184, 156, 166, 128, 163, 141, 119, 124, 96, 92, 94, 82, 82, 84, 62, 52, 45, 25, 21, 1, 0, 0, 0, 0, 0, 0, 0, 0, 0, 0, 0, 0, 0, 0, 0, 0, 0, 0, 0, 0, 0, 0, 0, 0, 0, 0, 0, 0, 0, 0, 0, 0, 0, 0, 0, 0, 0, 0, 0, 0, 0, 0, 0, 0, 0, 0, 0, 0, 0, 0, 0, 0, 0, 0, 0, 0, 0, 0, 0
0, 0, 58, 1, 3, 5, 10, 21, 37, 48, 81, 91, 116, 144, 134, 180, 187, 196, 204, 190, 229, 222, 233, 265, 228, 265, 180, 200, 205, 225, 199, 201, 138, 158, 148, 161, 118, 106, 116, 93, 91, 95, 64, 55, 31, 18, 3, 0, 0, 0, 0, 0, 0, 0, 0, 0, 0, 0, 0, 0, 0, 0, 0, 0, 0, 0, 0, 0, 0, 0, 0, 0, 0, 0, 0, 0, 0, 0, 0, 0, 0, 0, 0, 0, 0, 0, 0, 0, 0, 0, 0, 0, 0, 0, 0, 0, 0, 0, 0, 0, 0, 0, 0, 0, 0, 0
0, 0, 59, 0, 2, 10, 10, 27, 38, 59, 119, 97, 138, 146, 183, 204, 210, 219, 243, 243, 234, 230, 246, 242, 264, 220, 227, 233, 202, 244, 211, 205, 181, 189, 157, 140, 152, 121, 125, 94, 79, 84, 65, 35, 30, 21, 1, 0, 0, 0, 0, 0, 0, 0, 0, 0, 0, 0, 0, 0, 0, 0, 0, 0, 0, 0, 0, 0, 0, 0, 0, 0, 0, 0, 0, 0, 0, 0, 0, 0, 0, 0, 0, 0, 0, 0, 0, 0, 0, 0, 0, 0, 0, 0, 0, 0, 0, 0, 0, 0, 0, 0, 0, 0, 0, 0
0, 0, 60, 0, 3, 4, 16, 27, 37, 42, 117, 106, 123, 144, 148, 188, 188, 207, 211, 214, 232, 221, 215, 237, 233, 240, 251, 207, 234, 213, 222, 169, 199, 173, 160, 177, 132, 135, 123, 116, 90, 91, 65, 44, 43, 21, 0, 0, 0, 0, 0, 0, 0, 0, 0, 0, 0, 0, 0, 0, 0, 0, 0, 0, 0, 0, 0, 0, 0, 0, 0, 0, 0, 0, 0, 0, 0, 0, 0, 0, 0, 0, 0, 0, 0, 0, 0, 0, 0, 0, 0, 0, 0, 0, 0, 0, 0, 0, 0, 0, 0, 0, 0, 0, 0, 0
0, 0, 61, 1, 6, 8, 8, 24, 39, 46, 115, 95, 122, 111, 179, 199, 186, 221, 221, 253, 226, 243, 260, 245, 259, 249, 227, 224, 198, 175, 204, 213, 180, 163, 164, 143, 158, 116, 113, 100, 94, 87, 76, 48, 35, 12, 3, 0, 0, 0, 0, 0, 0, 0, 0, 0, 0, 0, 0, 0, 0, 0, 0, 0, 0, 0, 0, 0, 0, 0, 0, 0, 0, 0, 0, 0, 0, 0, 0, 0, 0, 0, 0, 0, 0, 0, 0, 0, 0, 0, 0, 0, 0, 0, 0, 0, 0, 0, 0, 0, 0, 0, 0, 0, 0, 0
0, 0, 62, 4, 3, 11, 23, 37, 33, 61, 111, 82, 115, 132, 158, 221, 202, 219, 214, 264, 268, 229, 240, 238, 242, 227, 200, 221, 206, 212, 213, 209, 170, 165, 155, 159, 134, 133, 116, 101, 87, 68, 60, 60, 35, 24, 2, 0, 0, 0, 0, 0, 0, 0, 0, 0, 0, 0, 0, 0, 0, 0, 0, 0, 0, 0, 0, 0, 0, 0, 0, 0, 0, 0, 0, 0, 0, 0, 0, 0, 0, 0, 0, 0, 0, 0, 0, 0, 0, 0, 0, 0, 0, 0, 0, 0, 0, 0, 0, 0, 0, 0, 0, 0, 0, 0
0, 0, 63, 1, 1, 5, 11, 24, 43, 66, 121, 100, 128, 169, 168, 212, 238, 211, 201, 247, 274, 252, 243, 232, 279, 230, 289, 245, 213, 220, 204, 163, 169, 184, 166, 162, 145, 115, 125, 92, 92, 83, 60, 64, 42, 18, 0, 0, 0, 0, 0, 0, 0, 0, 0, 0, 0, 0, 0, 0, 0, 0, 0, 0, 0, 0, 0, 0, 0, 0, 0, 0, 0, 0, 0, 0, 0, 0, 0, 0, 0, 0, 0, 0, 0, 0, 0, 0, 0, 0, 0, 0, 0, 0, 0, 0, 0, 0, 0, 0, 0, 0, 0, 0, 0, 0
0, 0, 64, 2, 3, 8, 11, 23, 38, 66, 125, 88, 99, 139, 195, 192, 191, 188, 235, 268, 234, 249, 256, 234, 204, 232, 238, 216, 229, 219, 161, 188, 203, 170, 158, 170, 129, 124, 130, 85, 82, 71, 67, 49, 27, 18, 3, 0, 0, 0, 0, 0, 0, 0, 0, 0, 0, 0, 0, 0, 0, 0, 0, 0, 0, 0, 0, 0, 0, 0, 0, 0, 0, 0, 0, 0, 0, 0, 0, 0, 0, 0, 0, 0, 0, 0, 0, 0, 0, 0, 0, 0, 0, 0, 0, 0, 0, 0, 0, 0, 0, 0, 0, 0, 0, 0
0, 0, 65, 4, 5, 7, 11, 40, 48, 51, 121, 78, 103, 141, 170, 185, 205, 236, 212, 263, 266, 243, 290, 245, 235, 251, 232, 203, 184, 218, 203, 178, 194, 168, 154, 146, 141, 136, 91, 96, 88, 93, 67, 51, 38, 23, 3, 0, 0, 0, 0, 0, 0, 0, 0, 0, 0, 0, 0, 0, 0, 0, 0, 0, 0, 0, 0, 0, 0, 0, 0, 0, 0, 0, 0, 0, 0, 0, 0, 0, 0, 0, 0, 0, 0, 0, 0, 0, 0, 0, 0, 0, 0, 0, 0, 0, 0, 0, 0, 0, 0, 0, 0, 0, 0, 0
0, 0, 66, 0, 5, 12, 11, 29, 40, 65, 118, 91, 117, 138, 171, 175, 207, 211, 230, 237, 289, 213, 261, 247, 248, 259, 262, 209, 240, 210, 188, 211, 183, 168, 154, 148, 137, 122, 101, 87, 87, 78, 77, 48, 33, 21, 5, 0, 0, 0, 0, 0, 0, 0, 0, 0, 0, 0, 0, 0, 0, 0, 0, 0, 0, 0, 0, 0, 0, 0, 0, 0, 0, 0, 0, 0, 0, 0, 0, 0, 0, 0, 0, 0, 0, 0, 0, 0, 0, 0, 0, 0, 0, 0, 0, 0, 0, 0, 0, 0, 0, 0, 0, 0, 0, 0
0, 0, 67, 4, 1, 6, 16, 20, 37, 57, 112, 100, 114, 156, 168, 216, 194, 204, 226, 248, 240, 260, 253, 280, 251, 251, 233, 231, 230, 215, 194, 182, 165, 155, 160, 157, 145, 129, 115, 105, 97, 85, 68, 53, 64, 19, 0, 0, 0, 0, 0, 0, 0, 0, 0, 0, 0, 0, 0, 0, 0, 0, 0, 0, 0, 0, 0, 0, 0, 0, 0, 0, 0, 0, 0, 0, 0, 0, 0, 0, 0, 0, 0, 0, 0, 0, 0, 0, 0, 0, 0, 0, 0, 0, 0, 0, 0, 0, 0, 0, 0, 0, 0, 0, 0, 0
0, 0, 68, 3, 6, 6, 17, 22, 41, 39, 96, 93, 113, 150, 184, 196, 210, 207, 240, 234, 279, 262, 262, 270, 225, 245, 231, 212, 235, 238, 218, 177, 185, 178, 134, 140, 141, 127, 145, 103, 91, 81, 78, 60, 50, 22, 0, 0, 0, 0, 0, 0, 0, 0, 0, 0, 0, 0, 0, 0, 0, 0, 0, 0, 0, 0, 0, 0, 0, 0, 0, 0, 0, 0, 0, 0, 0, 0, 0, 0, 0, 0, 0, 0, 0, 0, 0, 0, 0, 0, 0, 0, 0, 0, 0, 0, 0, 0, 0, 0, 0, 0, 0, 0, 0, 0
0, 0, 69, 3, 2, 7, 15, 19, 38, 46, 119, 114, 133, 148, 204, 199, 194, 224, 220, 241, 241, 264, 266, 250, 255, 247, 246, 216, 224, 205, 218, 234, 192, 159, 158, 129, 128, 129, 138, 95, 93, 71, 77, 63, 44, 31, 0, 0, 0, 0, 0, 0, 0, 0, 0, 0, 0, 0, 0, 0, 0, 0, 0, 0, 0, 0, 0, 0, 0, 0, 0, 0, 0, 0, 0, 0, 0, 0, 0, 0, 0, 0, 0, 0, 0, 0, 0, 0, 0, 0, 0, 0, 0, 0, 0, 0, 0, 0, 0, 0, 0, 0, 0, 0, 0, 0
0, 0, 70, 1, 4, 7, 14, 19, 31, 60, 112, 104, 109, 144, 165, 177, 186, 205, 247, 245, 210, 244, 235, 243, 241, 246, 256, 207, 257, 210, 224, 201, 193, 159, 181, 185, 167, 116, 103, 102, 85, 68, 57, 57, 42, 24, 1, 0, 0, 0, 0, 0, 0, 0, 0, 0, 0, 0, 0, 0, 0, 0, 0, 0, 0, 0, 0, 0, 0, 0, 0, 0, 0, 0, 0, 0, 0, 0, 0, 0, 0, 0, 0, 0, 0, 0, 0, 0, 0, 0, 0, 0, 0, 0, 0, 0, 0, 0, 0, 0, 0, 0, 0, 0, 0, 0
0, 0, 71, 0, 2, 9, 19, 23, 31, 48, 125, 95, 109, 125, 185, 197, 233, 191, 232, 258, 267, 262, 265, 239, 243, 258, 226, 212, 219, 222, 189, 214, 186, 171, 174, 152, 127, 126, 125, 86, 97, 70, 81, 50, 30, 20, 1, 0, 0, 0, 0, 0, 0, 0, 0, 0, 0, 0, 0, 0, 0, 0, 0, 0, 0, 0, 0, 0, 0, 0, 0, 0, 0, 0, 0, 0, 0, 0, 0, 0, 0, 0, 0, 0, 0, 0, 0, 0, 0, 0, 0, 0, 0, 0, 0, 0, 0, 0, 0, 0, 0, 0, 0, 0, 0, 0
0, 0, 72, 5, 4, 7, 15, 22, 43, 72, 133, 95, 127, 148, 157, 200, 203, 201, 215, 258, 249, 243, 270, 233, 232, 199, 238, 223, 236, 265, 201, 207, 205, 170, 155, 170, 106, 131, 116, 99, 85, 88, 67, 51, 35, 20, 1, 0, 0, 0, 0, 0, 0, 0, 0, 0, 0, 0, 0, 0, 0, 0, 0, 0, 0, 0, 0, 0, 0, 0, 0, 0, 0, 0, 0, 0, 0, 0, 0, 0, 0, 0, 0, 0, 0, 0, 0, 0, 0, 0, 0, 0, 0, 0, 0, 0, 0, 0, 0, 0, 0, 0, 0, 0, 0, 0
0, 0, 73, 1, 2, 3, 14, 35, 41, 64, 120, 102, 118, 146, 164, 197, 197, 235, 244, 240, 220, 270, 242, 229, 275, 226, 230, 234, 223, 190, 214, 187, 175, 164, 174, 154, 147, 132, 136, 98, 89, 81, 59, 60, 28, 21, 0, 0, 0, 0, 0, 0, 0, 0, 0, 0, 0, 0, 0, 0, 0, 0, 0, 0, 0, 0, 0, 0, 0, 0, 0, 0, 0, 0, 0, 0, 0, 0, 0, 0, 0, 0, 0, 0, 0, 0, 0, 0, 0, 0, 0, 0, 0, 0, 0, 0, 0, 0, 0, 0, 0, 0, 0, 0, 0, 0
0, 0, 74, 2, 3, 4, 9, 19, 35, 56, 96, 98, 119, 138, 175, 212, 178, 202, 194, 237, 229, 219, 244, 237, 230, 212, 225, 218, 213, 220, 208, 223, 179, 169, 177, 175, 138, 133, 114, 110, 89, 61, 71, 53, 37, 22, 3, 0, 0, 0, 0, 0, 0, 0, 0, 0, 0, 0, 0, 0, 0, 0, 0, 0, 0, 0, 0, 0, 0, 0, 0, 0, 0, 0, 0, 0, 0, 0, 0, 0, 0, 0, 0, 0, 0, 0, 0, 0, 0, 0, 0, 0, 0, 0, 0, 0, 0, 0, 0, 0, 0, 0, 0, 0, 0, 0
0, 0, 75, 4, 0, 8, 8, 29, 39, 51, 106, 103, 106, 140, 173, 220, 212, 192, 242, 252, 260, 244, 267, 259, 255, 222, 248, 229, 219, 216, 214, 186, 167, 161, 174, 146, 130, 145, 121, 95, 69, 87, 68, 60, 32, 22, 1, 0, 0, 0, 0, 0, 0, 0, 0, 0, 0, 0, 0, 0, 0, 0, 0, 0, 0, 0, 0, 0, 0, 0, 0, 0, 0, 0, 0, 0, 0, 0, 0, 0, 0, 0, 0, 0, 0, 0, 0, 0, 0, 0, 0, 0, 0, 0, 0, 0, 0, 0, 0, 0, 0, 0, 0, 0, 0, 0
0, 0, 76, 4, 3, 5, 19, 30, 41, 66, 126, 103, 118, 129, 168, 184, 191, 213, 244, 251, 214, 245, 238, 269, 267, 242, 270, 246, 207, 202, 203, 201, 178, 184, 149, 152, 120, 92, 119, 113, 88, 73, 60, 51, 34, 19, 2, 0, 0, 0, 0, 0, 0, 0, 0, 0, 0, 0, 0, 0, 0, 0, 0, 0, 0, 0, 0, 0, 0, 0, 0, 0, 0, 0, 0, 0, 0, 0, 0, 0, 0, 0, 0, 0, 0, 0, 0, 0, 0, 0, 0, 0, 0, 0, 0, 0, 0, 0, 0, 0, 0, 0, 0, 0, 0, 0
0, 0, 77, 2, 5, 10, 12, 18, 41, 60, 124, 103, 137, 143, 162, 202, 207, 198, 217, 236, 220, 270, 273, 294, 238, 226, 225, 234, 225, 195, 209, 192, 166, 155, 177, 141, 126, 119, 116, 100, 86, 82, 62, 37, 40, 16, 1, 0, 0, 0, 0, 0, 0, 0, 0, 0, 0, 0, 0, 0, 0, 0, 0, 0, 0, 0, 0, 0, 0, 0, 0, 0, 0, 0, 0, 0, 0, 0, 0, 0, 0, 0, 0, 0, 0, 0, 0, 0, 0, 0, 0, 0, 0, 0, 0, 0, 0, 0, 0, 0, 0, 0, 0, 0, 0, 0
