# TOPAS Version: 3.1.p3
# Parameter File: REDLEN_small_phantom_mc_basic_3cm.txt
# Results for scorer PhantomDose
# Scored on surface: CdTeCrystal1/YPlusSurface
# X in 100 bins of 0.03332 cm
# Y in 1 bin  of 0.4 cm
# Z in 100 bins of 0.0375 cm
# SurfaceTrackCount : Sum   
# Binned by incident track energy in 100 bins of 0.00104 MeV from 0.016 MeV to 0.12 MeV
# First bin is underflow, next to last bin is overflow, last bin is for case of no incident track.
0, 0, 0, 0, 0, 0, 0, 0, 0, 0, 1, 0, 0, 0, 1, 1, 3, 2, 3, 0, 5, 4, 2, 5, 1, 1, 5, 2, 5, 1, 2, 5, 4, 1, 0, 1, 3, 1, 0, 0, 0, 1, 0, 1, 0, 0, 0, 0, 0, 0, 0, 0, 0, 0, 0, 0, 0, 0, 0, 0, 0, 0, 0, 0, 0, 0, 0, 0, 0, 0, 0, 0, 0, 0, 0, 0, 0, 0, 0, 0, 0, 0, 0, 0, 0, 0, 0, 0, 0, 0, 0, 0, 0, 0, 0, 0, 0, 0, 0, 0, 0, 0, 0, 0, 0, 0
0, 0, 1, 0, 0, 0, 0, 0, 1, 0, 1, 1, 2, 0, 2, 1, 0, 1, 1, 4, 0, 0, 6, 4, 4, 4, 1, 1, 1, 4, 5, 3, 2, 2, 4, 2, 2, 1, 1, 0, 3, 1, 0, 1, 1, 0, 0, 0, 0, 0, 0, 0, 0, 0, 0, 0, 0, 0, 0, 0, 0, 0, 0, 0, 0, 0, 0, 0, 0, 0, 0, 0, 0, 0, 0, 0, 0, 0, 0, 0, 0, 0, 0, 0, 0, 0, 0, 0, 0, 0, 0, 0, 0, 0, 0, 0, 0, 0, 0, 0, 0, 0, 0, 0, 0, 0
0, 0, 2, 0, 0, 0, 0, 0, 0, 1, 0, 0, 1, 2, 1, 0, 2, 3, 4, 2, 1, 2, 4, 5, 3, 6, 1, 1, 5, 1, 4, 1, 1, 2, 2, 1, 0, 1, 0, 2, 0, 0, 2, 0, 1, 0, 0, 0, 0, 0, 0, 0, 0, 0, 0, 0, 0, 0, 0, 0, 0, 0, 0, 0, 0, 0, 0, 0, 0, 0, 0, 0, 0, 0, 0, 0, 0, 0, 0, 0, 0, 0, 0, 0, 0, 0, 0, 0, 0, 0, 0, 0, 0, 0, 0, 0, 0, 0, 0, 0, 0, 0, 0, 0, 0, 0
0, 0, 3, 0, 0, 0, 0, 0, 0, 0, 0, 3, 0, 0, 2, 0, 1, 3, 4, 5, 2, 2, 3, 2, 2, 1, 2, 2, 7, 2, 1, 4, 6, 2, 2, 3, 0, 2, 1, 1, 1, 1, 0, 1, 2, 0, 0, 0, 0, 0, 0, 0, 0, 0, 0, 0, 0, 0, 0, 0, 0, 0, 0, 0, 0, 0, 0, 0, 0, 0, 0, 0, 0, 0, 0, 0, 0, 0, 0, 0, 0, 0, 0, 0, 0, 0, 0, 0, 0, 0, 0, 0, 0, 0, 0, 0, 0, 0, 0, 0, 0, 0, 0, 0, 0, 0
0, 0, 4, 0, 0, 0, 0, 0, 0, 0, 2, 1, 1, 3, 2, 3, 1, 1, 3, 2, 3, 1, 3, 2, 0, 0, 3, 1, 5, 2, 0, 1, 1, 2, 0, 2, 1, 1, 0, 1, 1, 0, 1, 0, 0, 0, 0, 0, 0, 0, 0, 0, 0, 0, 0, 0, 0, 0, 0, 0, 0, 0, 0, 0, 0, 0, 0, 0, 0, 0, 0, 0, 0, 0, 0, 0, 0, 0, 0, 0, 0, 0, 0, 0, 0, 0, 0, 0, 0, 0, 0, 0, 0, 0, 0, 0, 0, 0, 0, 0, 0, 0, 0, 0, 0, 0
0, 0, 5, 0, 6, 4, 4, 16, 16, 23, 40, 39, 52, 72, 80, 78, 96, 80, 111, 105, 123, 141, 109, 110, 110, 82, 104, 92, 98, 88, 76, 82, 93, 75, 65, 64, 55, 58, 44, 49, 41, 47, 36, 20, 19, 10, 0, 0, 0, 0, 0, 0, 0, 0, 0, 0, 0, 0, 0, 0, 0, 0, 0, 0, 0, 0, 0, 0, 0, 0, 0, 0, 0, 0, 0, 0, 0, 0, 0, 0, 0, 0, 0, 0, 0, 0, 0, 0, 0, 0, 0, 0, 0, 0, 0, 0, 0, 0, 0, 0, 0, 0, 0, 0, 0, 0
0, 0, 6, 1, 3, 9, 14, 19, 41, 58, 108, 112, 128, 152, 188, 183, 190, 199, 226, 227, 267, 245, 276, 257, 248, 250, 234, 265, 223, 238, 186, 174, 195, 176, 165, 164, 135, 135, 141, 112, 91, 88, 65, 46, 44, 12, 1, 0, 0, 0, 0, 0, 0, 0, 0, 0, 0, 0, 0, 0, 0, 0, 0, 0, 0, 0, 0, 0, 0, 0, 0, 0, 0, 0, 0, 0, 0, 0, 0, 0, 0, 0, 0, 0, 0, 0, 0, 0, 0, 0, 0, 0, 0, 0, 0, 0, 0, 0, 0, 0, 0, 0, 0, 0, 0, 0
0, 0, 7, 5, 7, 8, 14, 28, 54, 55, 123, 90, 115, 136, 159, 196, 187, 258, 219, 250, 265, 257, 279, 228, 222, 205, 227, 223, 231, 225, 213, 196, 185, 178, 167, 143, 139, 138, 103, 120, 90, 71, 70, 56, 45, 19, 2, 0, 0, 0, 0, 0, 0, 0, 0, 0, 0, 0, 0, 0, 0, 0, 0, 0, 0, 0, 0, 0, 0, 0, 0, 0, 0, 0, 0, 0, 0, 0, 0, 0, 0, 0, 0, 0, 0, 0, 0, 0, 0, 0, 0, 0, 0, 0, 0, 0, 0, 0, 0, 0, 0, 0, 0, 0, 0, 0
0, 0, 8, 0, 9, 2, 11, 29, 36, 49, 102, 82, 114, 143, 158, 200, 214, 243, 242, 257, 224, 222, 253, 259, 238, 233, 197, 217, 221, 228, 244, 194, 174, 173, 156, 167, 125, 117, 102, 107, 94, 58, 65, 54, 38, 20, 2, 0, 0, 0, 0, 0, 0, 0, 0, 0, 0, 0, 0, 0, 0, 0, 0, 0, 0, 0, 0, 0, 0, 0, 0, 0, 0, 0, 0, 0, 0, 0, 0, 0, 0, 0, 0, 0, 0, 0, 0, 0, 0, 0, 0, 0, 0, 0, 0, 0, 0, 0, 0, 0, 0, 0, 0, 0, 0, 0
0, 0, 9, 1, 2, 6, 11, 27, 45, 62, 126, 99, 124, 139, 181, 207, 202, 202, 208, 237, 231, 238, 297, 233, 265, 232, 243, 215, 230, 257, 200, 189, 196, 172, 151, 153, 132, 117, 104, 92, 101, 72, 75, 59, 47, 17, 1, 0, 0, 0, 0, 0, 0, 0, 0, 0, 0, 0, 0, 0, 0, 0, 0, 0, 0, 0, 0, 0, 0, 0, 0, 0, 0, 0, 0, 0, 0, 0, 0, 0, 0, 0, 0, 0, 0, 0, 0, 0, 0, 0, 0, 0, 0, 0, 0, 0, 0, 0, 0, 0, 0, 0, 0, 0, 0, 0
0, 0, 10, 1, 3, 14, 18, 21, 31, 55, 112, 97, 110, 150, 156, 210, 198, 208, 238, 235, 258, 194, 249, 259, 235, 233, 246, 234, 192, 202, 182, 181, 187, 156, 164, 148, 148, 135, 121, 107, 74, 91, 70, 66, 33, 20, 1, 0, 0, 0, 0, 0, 0, 0, 0, 0, 0, 0, 0, 0, 0, 0, 0, 0, 0, 0, 0, 0, 0, 0, 0, 0, 0, 0, 0, 0, 0, 0, 0, 0, 0, 0, 0, 0, 0, 0, 0, 0, 0, 0, 0, 0, 0, 0, 0, 0, 0, 0, 0, 0, 0, 0, 0, 0, 0, 0
0, 0, 11, 0, 0, 10, 10, 27, 48, 57, 111, 93, 105, 151, 162, 207, 222, 198, 250, 219, 249, 220, 243, 248, 224, 238, 278, 214, 218, 194, 213, 189, 180, 160, 143, 133, 137, 140, 138, 110, 92, 95, 70, 56, 43, 21, 1, 0, 0, 0, 0, 0, 0, 0, 0, 0, 0, 0, 0, 0, 0, 0, 0, 0, 0, 0, 0, 0, 0, 0, 0, 0, 0, 0, 0, 0, 0, 0, 0, 0, 0, 0, 0, 0, 0, 0, 0, 0, 0, 0, 0, 0, 0, 0, 0, 0, 0, 0, 0, 0, 0, 0, 0, 0, 0, 0
0, 0, 12, 1, 3, 6, 12, 28, 44, 56, 109, 89, 122, 132, 170, 195, 185, 228, 231, 251, 290, 245, 246, 236, 213, 247, 237, 209, 212, 208, 197, 183, 142, 181, 148, 125, 136, 111, 123, 102, 104, 88, 64, 61, 38, 13, 1, 0, 0, 0, 0, 0, 0, 0, 0, 0, 0, 0, 0, 0, 0, 0, 0, 0, 0, 0, 0, 0, 0, 0, 0, 0, 0, 0, 0, 0, 0, 0, 0, 0, 0, 0, 0, 0, 0, 0, 0, 0, 0, 0, 0, 0, 0, 0, 0, 0, 0, 0, 0, 0, 0, 0, 0, 0, 0, 0
0, 0, 13, 8, 2, 5, 11, 28, 34, 45, 120, 90, 118, 139, 188, 187, 192, 194, 228, 234, 264, 250, 273, 261, 243, 240, 244, 230, 212, 225, 188, 201, 202, 164, 158, 146, 117, 138, 118, 101, 105, 82, 59, 43, 52, 23, 2, 0, 0, 0, 0, 0, 0, 0, 0, 0, 0, 0, 0, 0, 0, 0, 0, 0, 0, 0, 0, 0, 0, 0, 0, 0, 0, 0, 0, 0, 0, 0, 0, 0, 0, 0, 0, 0, 0, 0, 0, 0, 0, 0, 0, 0, 0, 0, 0, 0, 0, 0, 0, 0, 0, 0, 0, 0, 0, 0
0, 0, 14, 5, 4, 3, 10, 24, 43, 57, 128, 96, 105, 145, 187, 214, 206, 190, 215, 252, 237, 232, 254, 257, 265, 237, 242, 224, 218, 213, 202, 170, 188, 167, 178, 137, 132, 118, 124, 106, 96, 77, 56, 60, 28, 22, 0, 0, 0, 0, 0, 0, 0, 0, 0, 0, 0, 0, 0, 0, 0, 0, 0, 0, 0, 0, 0, 0, 0, 0, 0, 0, 0, 0, 0, 0, 0, 0, 0, 0, 0, 0, 0, 0, 0, 0, 0, 0, 0, 0, 0, 0, 0, 0, 0, 0, 0, 0, 0, 0, 0, 0, 0, 0, 0, 0
0, 0, 15, 0, 9, 8, 15, 38, 40, 48, 122, 93, 116, 134, 164, 178, 201, 246, 206, 248, 266, 259, 277, 257, 249, 222, 235, 211, 199, 236, 205, 190, 169, 176, 140, 130, 126, 138, 124, 104, 95, 66, 47, 62, 37, 24, 1, 0, 0, 0, 0, 0, 0, 0, 0, 0, 0, 0, 0, 0, 0, 0, 0, 0, 0, 0, 0, 0, 0, 0, 0, 0, 0, 0, 0, 0, 0, 0, 0, 0, 0, 0, 0, 0, 0, 0, 0, 0, 0, 0, 0, 0, 0, 0, 0, 0, 0, 0, 0, 0, 0, 0, 0, 0, 0, 0
0, 0, 16, 3, 1, 7, 16, 29, 33, 55, 143, 107, 116, 150, 172, 192, 210, 222, 238, 232, 233, 248, 246, 236, 248, 253, 237, 197, 206, 199, 200, 198, 191, 151, 155, 157, 137, 135, 114, 107, 80, 81, 64, 60, 34, 21, 1, 0, 0, 0, 0, 0, 0, 0, 0, 0, 0, 0, 0, 0, 0, 0, 0, 0, 0, 0, 0, 0, 0, 0, 0, 0, 0, 0, 0, 0, 0, 0, 0, 0, 0, 0, 0, 0, 0, 0, 0, 0, 0, 0, 0, 0, 0, 0, 0, 0, 0, 0, 0, 0, 0, 0, 0, 0, 0, 0
0, 0, 17, 1, 2, 10, 11, 27, 43, 53, 126, 97, 110, 139, 147, 199, 180, 197, 241, 267, 270, 268, 285, 231, 231, 265, 236, 204, 193, 186, 194, 179, 176, 167, 139, 164, 129, 150, 126, 142, 97, 81, 59, 57, 39, 10, 1, 0, 0, 0, 0, 0, 0, 0, 0, 0, 0, 0, 0, 0, 0, 0, 0, 0, 0, 0, 0, 0, 0, 0, 0, 0, 0, 0, 0, 0, 0, 0, 0, 0, 0, 0, 0, 0, 0, 0, 0, 0, 0, 0, 0, 0, 0, 0, 0, 0, 0, 0, 0, 0, 0, 0, 0, 0, 0, 0
0, 0, 18, 1, 2, 4, 14, 25, 27, 57, 116, 106, 111, 175, 171, 201, 214, 220, 214, 214, 248, 250, 252, 239, 231, 254, 236, 223, 255, 219, 193, 186, 172, 158, 174, 158, 132, 104, 117, 116, 81, 79, 65, 47, 42, 19, 3, 0, 0, 0, 0, 0, 0, 0, 0, 0, 0, 0, 0, 0, 0, 0, 0, 0, 0, 0, 0, 0, 0, 0, 0, 0, 0, 0, 0, 0, 0, 0, 0, 0, 0, 0, 0, 0, 0, 0, 0, 0, 0, 0, 0, 0, 0, 0, 0, 0, 0, 0, 0, 0, 0, 0, 0, 0, 0, 0
0, 0, 19, 2, 1, 8, 16, 21, 40, 44, 135, 93, 119, 149, 168, 182, 212, 227, 217, 260, 244, 277, 212, 255, 241, 246, 235, 265, 246, 197, 211, 192, 189, 183, 153, 158, 139, 133, 130, 109, 109, 75, 61, 55, 35, 25, 0, 0, 0, 0, 0, 0, 0, 0, 0, 0, 0, 0, 0, 0, 0, 0, 0, 0, 0, 0, 0, 0, 0, 0, 0, 0, 0, 0, 0, 0, 0, 0, 0, 0, 0, 0, 0, 0, 0, 0, 0, 0, 0, 0, 0, 0, 0, 0, 0, 0, 0, 0, 0, 0, 0, 0, 0, 0, 0, 0
0, 0, 20, 6, 3, 6, 12, 21, 31, 57, 100, 77, 105, 154, 174, 189, 195, 203, 213, 242, 229, 244, 246, 256, 233, 217, 224, 240, 215, 178, 228, 187, 156, 157, 175, 132, 151, 132, 114, 109, 96, 75, 83, 59, 33, 28, 2, 0, 0, 0, 0, 0, 0, 0, 0, 0, 0, 0, 0, 0, 0, 0, 0, 0, 0, 0, 0, 0, 0, 0, 0, 0, 0, 0, 0, 0, 0, 0, 0, 0, 0, 0, 0, 0, 0, 0, 0, 0, 0, 0, 0, 0, 0, 0, 0, 0, 0, 0, 0, 0, 0, 0, 0, 0, 0, 0
0, 0, 21, 1, 2, 5, 20, 26, 41, 62, 121, 88, 120, 152, 130, 191, 208, 217, 238, 259, 245, 242, 240, 240, 240, 262, 214, 231, 251, 209, 210, 179, 176, 168, 158, 134, 137, 120, 109, 113, 85, 87, 55, 53, 35, 29, 1, 0, 0, 0, 0, 0, 0, 0, 0, 0, 0, 0, 0, 0, 0, 0, 0, 0, 0, 0, 0, 0, 0, 0, 0, 0, 0, 0, 0, 0, 0, 0, 0, 0, 0, 0, 0, 0, 0, 0, 0, 0, 0, 0, 0, 0, 0, 0, 0, 0, 0, 0, 0, 0, 0, 0, 0, 0, 0, 0
0, 0, 22, 5, 3, 7, 10, 14, 29, 40, 128, 96, 131, 143, 157, 195, 193, 170, 225, 249, 220, 257, 239, 237, 258, 245, 242, 225, 199, 205, 207, 182, 184, 176, 152, 143, 130, 117, 114, 94, 113, 61, 63, 41, 33, 27, 2, 0, 0, 0, 0, 0, 0, 0, 0, 0, 0, 0, 0, 0, 0, 0, 0, 0, 0, 0, 0, 0, 0, 0, 0, 0, 0, 0, 0, 0, 0, 0, 0, 0, 0, 0, 0, 0, 0, 0, 0, 0, 0, 0, 0, 0, 0, 0, 0, 0, 0, 0, 0, 0, 0, 0, 0, 0, 0, 0
0, 0, 23, 5, 4, 6, 15, 22, 34, 53, 111, 69, 115, 163, 183, 160, 218, 202, 232, 221, 250, 253, 258, 251, 227, 239, 230, 232, 211, 174, 201, 179, 176, 160, 172, 145, 132, 126, 120, 105, 125, 79, 70, 54, 37, 18, 0, 0, 0, 0, 0, 0, 0, 0, 0, 0, 0, 0, 0, 0, 0, 0, 0, 0, 0, 0, 0, 0, 0, 0, 0, 0, 0, 0, 0, 0, 0, 0, 0, 0, 0, 0, 0, 0, 0, 0, 0, 0, 0, 0, 0, 0, 0, 0, 0, 0, 0, 0, 0, 0, 0, 0, 0, 0, 0, 0
0, 0, 24, 4, 3, 6, 17, 32, 38, 52, 126, 90, 91, 138, 167, 213, 197, 211, 266, 241, 269, 239, 251, 278, 238, 243, 227, 240, 196, 187, 220, 190, 158, 175, 172, 143, 162, 111, 101, 117, 100, 78, 60, 57, 35, 11, 0, 0, 0, 0, 0, 0, 0, 0, 0, 0, 0, 0, 0, 0, 0, 0, 0, 0, 0, 0, 0, 0, 0, 0, 0, 0, 0, 0, 0, 0, 0, 0, 0, 0, 0, 0, 0, 0, 0, 0, 0, 0, 0, 0, 0, 0, 0, 0, 0, 0, 0, 0, 0, 0, 0, 0, 0, 0, 0, 0
0, 0, 25, 2, 5, 7, 17, 25, 33, 59, 104, 103, 118, 141, 179, 211, 176, 234, 240, 274, 229, 248, 254, 258, 238, 249, 232, 230, 230, 246, 202, 211, 184, 187, 165, 146, 118, 116, 110, 95, 76, 66, 60, 55, 36, 27, 0, 0, 0, 0, 0, 0, 0, 0, 0, 0, 0, 0, 0, 0, 0, 0, 0, 0, 0, 0, 0, 0, 0, 0, 0, 0, 0, 0, 0, 0, 0, 0, 0, 0, 0, 0, 0, 0, 0, 0, 0, 0, 0, 0, 0, 0, 0, 0, 0, 0, 0, 0, 0, 0, 0, 0, 0, 0, 0, 0
0, 0, 26, 3, 2, 11, 17, 23, 58, 64, 116, 102, 112, 154, 175, 207, 207, 241, 230, 257, 253, 256, 237, 245, 229, 228, 251, 195, 195, 185, 208, 204, 187, 163, 180, 150, 162, 140, 110, 103, 100, 81, 63, 68, 43, 24, 2, 0, 0, 0, 0, 0, 0, 0, 0, 0, 0, 0, 0, 0, 0, 0, 0, 0, 0, 0, 0, 0, 0, 0, 0, 0, 0, 0, 0, 0, 0, 0, 0, 0, 0, 0, 0, 0, 0, 0, 0, 0, 0, 0, 0, 0, 0, 0, 0, 0, 0, 0, 0, 0, 0, 0, 0, 0, 0, 0
0, 0, 27, 2, 9, 8, 13, 24, 50, 66, 121, 115, 115, 153, 166, 221, 209, 213, 210, 257, 272, 249, 218, 244, 261, 243, 230, 218, 222, 202, 188, 177, 176, 175, 153, 158, 124, 139, 129, 97, 80, 77, 60, 41, 48, 19, 0, 0, 0, 0, 0, 0, 0, 0, 0, 0, 0, 0, 0, 0, 0, 0, 0, 0, 0, 0, 0, 0, 0, 0, 0, 0, 0, 0, 0, 0, 0, 0, 0, 0, 0, 0, 0, 0, 0, 0, 0, 0, 0, 0, 0, 0, 0, 0, 0, 0, 0, 0, 0, 0, 0, 0, 0, 0, 0, 0
0, 0, 28, 2, 3, 9, 15, 17, 40, 71, 104, 91, 107, 146, 156, 183, 193, 239, 257, 246, 236, 267, 269, 224, 229, 244, 198, 235, 224, 184, 183, 195, 175, 166, 153, 130, 145, 105, 111, 118, 101, 95, 64, 58, 35, 20, 0, 0, 0, 0, 0, 0, 0, 0, 0, 0, 0, 0, 0, 0, 0, 0, 0, 0, 0, 0, 0, 0, 0, 0, 0, 0, 0, 0, 0, 0, 0, 0, 0, 0, 0, 0, 0, 0, 0, 0, 0, 0, 0, 0, 0, 0, 0, 0, 0, 0, 0, 0, 0, 0, 0, 0, 0, 0, 0, 0
0, 0, 29, 4, 4, 5, 10, 18, 37, 65, 106, 99, 110, 142, 174, 210, 195, 210, 199, 272, 242, 220, 261, 243, 256, 219, 245, 227, 205, 221, 219, 198, 189, 191, 147, 149, 134, 126, 116, 111, 77, 92, 71, 58, 49, 19, 1, 0, 0, 0, 0, 0, 0, 0, 0, 0, 0, 0, 0, 0, 0, 0, 0, 0, 0, 0, 0, 0, 0, 0, 0, 0, 0, 0, 0, 0, 0, 0, 0, 0, 0, 0, 0, 0, 0, 0, 0, 0, 0, 0, 0, 0, 0, 0, 0, 0, 0, 0, 0, 0, 0, 0, 0, 0, 0, 0
0, 0, 30, 4, 3, 12, 11, 17, 45, 45, 129, 93, 114, 152, 167, 188, 189, 218, 220, 249, 242, 219, 238, 260, 244, 242, 252, 224, 239, 217, 200, 189, 178, 155, 141, 136, 148, 112, 152, 102, 77, 76, 62, 69, 33, 18, 0, 0, 0, 0, 0, 0, 0, 0, 0, 0, 0, 0, 0, 0, 0, 0, 0, 0, 0, 0, 0, 0, 0, 0, 0, 0, 0, 0, 0, 0, 0, 0, 0, 0, 0, 0, 0, 0, 0, 0, 0, 0, 0, 0, 0, 0, 0, 0, 0, 0, 0, 0, 0, 0, 0, 0, 0, 0, 0, 0
0, 0, 31, 2, 6, 8, 14, 25, 48, 43, 108, 103, 107, 164, 171, 204, 215, 227, 234, 229, 258, 247, 237, 254, 259, 244, 229, 227, 203, 223, 180, 195, 201, 162, 152, 168, 132, 126, 98, 114, 86, 68, 71, 44, 37, 19, 0, 0, 0, 0, 0, 0, 0, 0, 0, 0, 0, 0, 0, 0, 0, 0, 0, 0, 0, 0, 0, 0, 0, 0, 0, 0, 0, 0, 0, 0, 0, 0, 0, 0, 0, 0, 0, 0, 0, 0, 0, 0, 0, 0, 0, 0, 0, 0, 0, 0, 0, 0, 0, 0, 0, 0, 0, 0, 0, 0
0, 0, 32, 2, 1, 10, 16, 22, 45, 70, 118, 85, 108, 133, 181, 182, 185, 198, 229, 216, 256, 244, 269, 267, 241, 214, 215, 205, 205, 217, 220, 156, 182, 153, 180, 147, 124, 155, 109, 106, 100, 66, 69, 53, 38, 19, 1, 0, 0, 0, 0, 0, 0, 0, 0, 0, 0, 0, 0, 0, 0, 0, 0, 0, 0, 0, 0, 0, 0, 0, 0, 0, 0, 0, 0, 0, 0, 0, 0, 0, 0, 0, 0, 0, 0, 0, 0, 0, 0, 0, 0, 0, 0, 0, 0, 0, 0, 0, 0, 0, 0, 0, 0, 0, 0, 0
0, 0, 33, 6, 5, 8, 19, 26, 41, 43, 106, 96, 115, 161, 177, 235, 219, 240, 216, 252, 235, 258, 289, 323, 229, 233, 238, 228, 204, 226, 185, 196, 183, 148, 161, 148, 149, 131, 118, 79, 94, 73, 72, 48, 37, 20, 0, 0, 0, 0, 0, 0, 0, 0, 0, 0, 0, 0, 0, 0, 0, 0, 0, 0, 0, 0, 0, 0, 0, 0, 0, 0, 0, 0, 0, 0, 0, 0, 0, 0, 0, 0, 0, 0, 0, 0, 0, 0, 0, 0, 0, 0, 0, 0, 0, 0, 0, 0, 0, 0, 0, 0, 0, 0, 0, 0
0, 0, 34, 0, 2, 8, 14, 17, 45, 55, 102, 93, 119, 133, 156, 187, 220, 213, 212, 243, 233, 273, 242, 265, 230, 254, 219, 225, 234, 205, 171, 181, 205, 177, 164, 129, 141, 110, 105, 99, 92, 102, 79, 58, 45, 18, 1, 0, 0, 0, 0, 0, 0, 0, 0, 0, 0, 0, 0, 0, 0, 0, 0, 0, 0, 0, 0, 0, 0, 0, 0, 0, 0, 0, 0, 0, 0, 0, 0, 0, 0, 0, 0, 0, 0, 0, 0, 0, 0, 0, 0, 0, 0, 0, 0, 0, 0, 0, 0, 0, 0, 0, 0, 0, 0, 0
0, 0, 35, 4, 2, 8, 16, 28, 42, 67, 110, 93, 107, 130, 181, 205, 189, 216, 261, 207, 239, 223, 235, 262, 214, 232, 246, 256, 195, 219, 229, 208, 157, 179, 168, 142, 140, 100, 104, 93, 90, 76, 46, 40, 33, 22, 2, 0, 0, 0, 0, 0, 0, 0, 0, 0, 0, 0, 0, 0, 0, 0, 0, 0, 0, 0, 0, 0, 0, 0, 0, 0, 0, 0, 0, 0, 0, 0, 0, 0, 0, 0, 0, 0, 0, 0, 0, 0, 0, 0, 0, 0, 0, 0, 0, 0, 0, 0, 0, 0, 0, 0, 0, 0, 0, 0
0, 0, 36, 2, 2, 11, 22, 27, 46, 59, 113, 79, 119, 137, 169, 193, 221, 192, 232, 244, 233, 230, 255, 269, 235, 258, 220, 213, 232, 219, 193, 199, 173, 177, 182, 145, 139, 139, 104, 90, 99, 87, 60, 63, 39, 22, 1, 0, 0, 0, 0, 0, 0, 0, 0, 0, 0, 0, 0, 0, 0, 0, 0, 0, 0, 0, 0, 0, 0, 0, 0, 0, 0, 0, 0, 0, 0, 0, 0, 0, 0, 0, 0, 0, 0, 0, 0, 0, 0, 0, 0, 0, 0, 0, 0, 0, 0, 0, 0, 0, 0, 0, 0, 0, 0, 0
0, 0, 37, 5, 1, 7, 20, 30, 35, 54, 106, 87, 135, 148, 168, 204, 201, 223, 239, 250, 260, 245, 245, 227, 255, 218, 272, 256, 202, 216, 244, 196, 164, 166, 132, 134, 145, 134, 104, 94, 77, 76, 69, 48, 38, 18, 3, 0, 0, 0, 0, 0, 0, 0, 0, 0, 0, 0, 0, 0, 0, 0, 0, 0, 0, 0, 0, 0, 0, 0, 0, 0, 0, 0, 0, 0, 0, 0, 0, 0, 0, 0, 0, 0, 0, 0, 0, 0, 0, 0, 0, 0, 0, 0, 0, 0, 0, 0, 0, 0, 0, 0, 0, 0, 0, 0
0, 0, 38, 1, 5, 12, 14, 25, 36, 52, 147, 79, 125, 152, 191, 187, 197, 227, 238, 260, 253, 252, 250, 244, 224, 215, 230, 242, 199, 231, 204, 209, 193, 185, 174, 138, 131, 125, 109, 122, 80, 94, 66, 70, 32, 18, 0, 0, 0, 0, 0, 0, 0, 0, 0, 0, 0, 0, 0, 0, 0, 0, 0, 0, 0, 0, 0, 0, 0, 0, 0, 0, 0, 0, 0, 0, 0, 0, 0, 0, 0, 0, 0, 0, 0, 0, 0, 0, 0, 0, 0, 0, 0, 0, 0, 0, 0, 0, 0, 0, 0, 0, 0, 0, 0, 0
0, 0, 39, 1, 3, 8, 15, 19, 36, 51, 112, 93, 124, 128, 166, 215, 213, 225, 220, 246, 249, 286, 267, 242, 231, 249, 231, 222, 222, 216, 189, 187, 168, 186, 141, 142, 116, 132, 119, 102, 78, 66, 57, 59, 51, 22, 0, 0, 0, 0, 0, 0, 0, 0, 0, 0, 0, 0, 0, 0, 0, 0, 0, 0, 0, 0, 0, 0, 0, 0, 0, 0, 0, 0, 0, 0, 0, 0, 0, 0, 0, 0, 0, 0, 0, 0, 0, 0, 0, 0, 0, 0, 0, 0, 0, 0, 0, 0, 0, 0, 0, 0, 0, 0, 0, 0
0, 0, 40, 3, 1, 7, 13, 20, 34, 56, 117, 83, 115, 135, 178, 192, 186, 213, 218, 234, 256, 258, 252, 225, 252, 238, 231, 201, 229, 203, 203, 220, 189, 167, 154, 144, 142, 130, 134, 129, 87, 74, 68, 42, 46, 21, 0, 0, 0, 0, 0, 0, 0, 0, 0, 0, 0, 0, 0, 0, 0, 0, 0, 0, 0, 0, 0, 0, 0, 0, 0, 0, 0, 0, 0, 0, 0, 0, 0, 0, 0, 0, 0, 0, 0, 0, 0, 0, 0, 0, 0, 0, 0, 0, 0, 0, 0, 0, 0, 0, 0, 0, 0, 0, 0, 0
0, 0, 41, 4, 5, 6, 15, 30, 30, 40, 116, 83, 123, 126, 134, 162, 173, 195, 217, 229, 221, 281, 228, 278, 236, 237, 210, 224, 190, 178, 212, 149, 180, 166, 146, 135, 116, 118, 113, 107, 98, 80, 61, 52, 37, 26, 2, 0, 0, 0, 0, 0, 0, 0, 0, 0, 0, 0, 0, 0, 0, 0, 0, 0, 0, 0, 0, 0, 0, 0, 0, 0, 0, 0, 0, 0, 0, 0, 0, 0, 0, 0, 0, 0, 0, 0, 0, 0, 0, 0, 0, 0, 0, 0, 0, 0, 0, 0, 0, 0, 0, 0, 0, 0, 0, 0
0, 0, 42, 0, 2, 7, 11, 20, 30, 32, 99, 79, 100, 119, 110, 148, 151, 147, 174, 186, 188, 195, 206, 165, 185, 188, 184, 173, 137, 139, 158, 138, 140, 144, 130, 116, 119, 101, 86, 83, 78, 76, 59, 57, 41, 18, 0, 0, 0, 0, 0, 0, 0, 0, 0, 0, 0, 0, 0, 0, 0, 0, 0, 0, 0, 0, 0, 0, 0, 0, 0, 0, 0, 0, 0, 0, 0, 0, 0, 0, 0, 0, 0, 0, 0, 0, 0, 0, 0, 0, 0, 0, 0, 0, 0, 0, 0, 0, 0, 0, 0, 0, 0, 0, 0, 0
0, 0, 43, 0, 3, 5, 4, 15, 24, 34, 63, 56, 62, 87, 101, 127, 110, 108, 134, 155, 146, 160, 156, 150, 143, 176, 134, 144, 143, 148, 139, 121, 123, 113, 91, 92, 87, 79, 64, 64, 47, 47, 46, 35, 29, 22, 0, 0, 0, 0, 0, 0, 0, 0, 0, 0, 0, 0, 0, 0, 0, 0, 0, 0, 0, 0, 0, 0, 0, 0, 0, 0, 0, 0, 0, 0, 0, 0, 0, 0, 0, 0, 0, 0, 0, 0, 0, 0, 0, 0, 0, 0, 0, 0, 0, 0, 0, 0, 0, 0, 0, 0, 0, 0, 0, 0
0, 0, 44, 3, 2, 2, 4, 15, 17, 27, 46, 35, 46, 54, 77, 92, 96, 95, 98, 134, 92, 134, 147, 122, 112, 123, 110, 118, 134, 106, 107, 103, 82, 103, 91, 90, 73, 67, 65, 52, 54, 49, 36, 32, 20, 9, 0, 0, 0, 0, 0, 0, 0, 0, 0, 0, 0, 0, 0, 0, 0, 0, 0, 0, 0, 0, 0, 0, 0, 0, 0, 0, 0, 0, 0, 0, 0, 0, 0, 0, 0, 0, 0, 0, 0, 0, 0, 0, 0, 0, 0, 0, 0, 0, 0, 0, 0, 0, 0, 0, 0, 0, 0, 0, 0, 0
0, 0, 45, 0, 0, 1, 7, 3, 10, 11, 35, 25, 30, 46, 66, 63, 58, 66, 91, 81, 108, 98, 79, 95, 80, 81, 107, 95, 92, 88, 84, 83, 70, 80, 80, 79, 89, 57, 66, 44, 34, 34, 36, 21, 14, 5, 0, 0, 0, 0, 0, 0, 0, 0, 0, 0, 0, 0, 0, 0, 0, 0, 0, 0, 0, 0, 0, 0, 0, 0, 0, 0, 0, 0, 0, 0, 0, 0, 0, 0, 0, 0, 0, 0, 0, 0, 0, 0, 0, 0, 0, 0, 0, 0, 0, 0, 0, 0, 0, 0, 0, 0, 0, 0, 0, 0
0, 0, 46, 0, 0, 1, 2, 3, 5, 9, 10, 28, 25, 25, 43, 51, 57, 68, 66, 66, 72, 66, 73, 88, 88, 93, 78, 86, 75, 82, 60, 50, 82, 63, 59, 49, 49, 49, 47, 39, 34, 33, 36, 19, 15, 8, 2, 0, 0, 0, 0, 0, 0, 0, 0, 0, 0, 0, 0, 0, 0, 0, 0, 0, 0, 0, 0, 0, 0, 0, 0, 0, 0, 0, 0, 0, 0, 0, 0, 0, 0, 0, 0, 0, 0, 0, 0, 0, 0, 0, 0, 0, 0, 0, 0, 0, 0, 0, 0, 0, 0, 0, 0, 0, 0, 0
0, 0, 47, 2, 1, 2, 1, 4, 4, 6, 18, 8, 11, 26, 20, 30, 43, 39, 44, 41, 54, 51, 44, 68, 53, 67, 58, 59, 58, 75, 52, 58, 57, 49, 59, 47, 35, 45, 39, 16, 32, 26, 28, 18, 12, 7, 1, 0, 0, 0, 0, 0, 0, 0, 0, 0, 0, 0, 0, 0, 0, 0, 0, 0, 0, 0, 0, 0, 0, 0, 0, 0, 0, 0, 0, 0, 0, 0, 0, 0, 0, 0, 0, 0, 0, 0, 0, 0, 0, 0, 0, 0, 0, 0, 0, 0, 0, 0, 0, 0, 0, 0, 0, 0, 0, 0
0, 0, 48, 2, 0, 0, 0, 0, 1, 3, 14, 10, 9, 14, 16, 20, 25, 29, 38, 55, 42, 42, 51, 43, 51, 71, 58, 57, 39, 46, 50, 46, 37, 41, 42, 40, 40, 38, 34, 29, 24, 19, 18, 16, 15, 8, 0, 0, 0, 0, 0, 0, 0, 0, 0, 0, 0, 0, 0, 0, 0, 0, 0, 0, 0, 0, 0, 0, 0, 0, 0, 0, 0, 0, 0, 0, 0, 0, 0, 0, 0, 0, 0, 0, 0, 0, 0, 0, 0, 0, 0, 0, 0, 0, 0, 0, 0, 0, 0, 0, 0, 0, 0, 0, 0, 0
0, 0, 49, 0, 0, 0, 0, 0, 0, 1, 7, 1, 8, 10, 10, 18, 21, 23, 25, 29, 47, 45, 64, 52, 52, 41, 57, 66, 54, 50, 50, 49, 54, 54, 48, 47, 39, 45, 24, 23, 25, 18, 14, 12, 14, 4, 0, 0, 0, 0, 0, 0, 0, 0, 0, 0, 0, 0, 0, 0, 0, 0, 0, 0, 0, 0, 0, 0, 0, 0, 0, 0, 0, 0, 0, 0, 0, 0, 0, 0, 0, 0, 0, 0, 0, 0, 0, 0, 0, 0, 0, 0, 0, 0, 0, 0, 0, 0, 0, 0, 0, 0, 0, 0, 0, 0
0, 0, 50, 2, 0, 0, 0, 0, 1, 0, 7, 5, 7, 5, 17, 12, 29, 25, 35, 46, 35, 54, 35, 45, 48, 44, 55, 37, 49, 47, 36, 47, 54, 42, 54, 32, 28, 35, 30, 24, 29, 22, 10, 10, 17, 2, 0, 0, 0, 0, 0, 0, 0, 0, 0, 0, 0, 0, 0, 0, 0, 0, 0, 0, 0, 0, 0, 0, 0, 0, 0, 0, 0, 0, 0, 0, 0, 0, 0, 0, 0, 0, 0, 0, 0, 0, 0, 0, 0, 0, 0, 0, 0, 0, 0, 0, 0, 0, 0, 0, 0, 0, 0, 0, 0, 0
0, 0, 51, 1, 0, 0, 0, 1, 2, 2, 10, 9, 6, 12, 17, 17, 25, 25, 39, 56, 37, 47, 40, 61, 55, 39, 52, 52, 45, 52, 57, 52, 56, 43, 52, 40, 35, 34, 44, 30, 28, 21, 23, 24, 17, 1, 0, 0, 0, 0, 0, 0, 0, 0, 0, 0, 0, 0, 0, 0, 0, 0, 0, 0, 0, 0, 0, 0, 0, 0, 0, 0, 0, 0, 0, 0, 0, 0, 0, 0, 0, 0, 0, 0, 0, 0, 0, 0, 0, 0, 0, 0, 0, 0, 0, 0, 0, 0, 0, 0, 0, 0, 0, 0, 0, 0
0, 0, 52, 1, 1, 0, 0, 1, 5, 10, 19, 13, 13, 18, 14, 27, 35, 37, 56, 45, 55, 64, 77, 77, 57, 51, 56, 64, 66, 50, 54, 62, 47, 50, 41, 40, 47, 40, 30, 48, 20, 31, 26, 25, 16, 7, 0, 0, 0, 0, 0, 0, 0, 0, 0, 0, 0, 0, 0, 0, 0, 0, 0, 0, 0, 0, 0, 0, 0, 0, 0, 0, 0, 0, 0, 0, 0, 0, 0, 0, 0, 0, 0, 0, 0, 0, 0, 0, 0, 0, 0, 0, 0, 0, 0, 0, 0, 0, 0, 0, 0, 0, 0, 0, 0, 0
0, 0, 53, 0, 0, 0, 2, 4, 5, 13, 28, 22, 33, 30, 31, 47, 39, 57, 47, 59, 63, 96, 88, 90, 73, 85, 84, 83, 96, 53, 76, 54, 53, 76, 64, 66, 50, 43, 56, 53, 39, 34, 25, 15, 22, 5, 0, 0, 0, 0, 0, 0, 0, 0, 0, 0, 0, 0, 0, 0, 0, 0, 0, 0, 0, 0, 0, 0, 0, 0, 0, 0, 0, 0, 0, 0, 0, 0, 0, 0, 0, 0, 0, 0, 0, 0, 0, 0, 0, 0, 0, 0, 0, 0, 0, 0, 0, 0, 0, 0, 0, 0, 0, 0, 0, 0
0, 0, 54, 0, 2, 3, 1, 6, 9, 13, 45, 31, 31, 43, 65, 70, 74, 76, 63, 89, 108, 89, 78, 98, 97, 88, 85, 100, 100, 91, 87, 78, 87, 67, 56, 67, 78, 69, 59, 41, 39, 42, 30, 24, 21, 9, 0, 0, 0, 0, 0, 0, 0, 0, 0, 0, 0, 0, 0, 0, 0, 0, 0, 0, 0, 0, 0, 0, 0, 0, 0, 0, 0, 0, 0, 0, 0, 0, 0, 0, 0, 0, 0, 0, 0, 0, 0, 0, 0, 0, 0, 0, 0, 0, 0, 0, 0, 0, 0, 0, 0, 0, 0, 0, 0, 0
0, 0, 55, 0, 1, 3, 4, 8, 14, 27, 50, 46, 45, 65, 80, 65, 103, 103, 120, 119, 135, 114, 118, 117, 111, 154, 125, 107, 139, 124, 109, 93, 92, 103, 93, 72, 65, 68, 68, 47, 42, 42, 43, 37, 23, 11, 0, 0, 0, 0, 0, 0, 0, 0, 0, 0, 0, 0, 0, 0, 0, 0, 0, 0, 0, 0, 0, 0, 0, 0, 0, 0, 0, 0, 0, 0, 0, 0, 0, 0, 0, 0, 0, 0, 0, 0, 0, 0, 0, 0, 0, 0, 0, 0, 0, 0, 0, 0, 0, 0, 0, 0, 0, 0, 0, 0
0, 0, 56, 0, 4, 4, 6, 11, 24, 33, 48, 62, 68, 86, 105, 114, 100, 108, 149, 163, 156, 151, 176, 124, 159, 174, 144, 129, 156, 145, 135, 103, 104, 105, 65, 77, 91, 83, 86, 67, 70, 58, 38, 30, 20, 7, 1, 0, 0, 0, 0, 0, 0, 0, 0, 0, 0, 0, 0, 0, 0, 0, 0, 0, 0, 0, 0, 0, 0, 0, 0, 0, 0, 0, 0, 0, 0, 0, 0, 0, 0, 0, 0, 0, 0, 0, 0, 0, 0, 0, 0, 0, 0, 0, 0, 0, 0, 0, 0, 0, 0, 0, 0, 0, 0, 0
0, 0, 57, 1, 1, 7, 9, 20, 24, 38, 77, 69, 94, 87, 136, 153, 145, 138, 159, 190, 191, 191, 225, 188, 177, 209, 185, 199, 189, 159, 151, 151, 147, 160, 130, 122, 116, 96, 84, 64, 71, 75, 53, 44, 34, 13, 1, 0, 0, 0, 0, 0, 0, 0, 0, 0, 0, 0, 0, 0, 0, 0, 0, 0, 0, 0, 0, 0, 0, 0, 0, 0, 0, 0, 0, 0, 0, 0, 0, 0, 0, 0, 0, 0, 0, 0, 0, 0, 0, 0, 0, 0, 0, 0, 0, 0, 0, 0, 0, 0, 0, 0, 0, 0, 0, 0
0, 0, 58, 6, 5, 4, 13, 19, 28, 62, 105, 101, 93, 121, 138, 169, 164, 189, 217, 182, 276, 222, 236, 220, 233, 259, 215, 210, 226, 207, 169, 168, 184, 175, 159, 161, 126, 100, 116, 93, 75, 85, 71, 42, 40, 30, 2, 0, 0, 0, 0, 0, 0, 0, 0, 0, 0, 0, 0, 0, 0, 0, 0, 0, 0, 0, 0, 0, 0, 0, 0, 0, 0, 0, 0, 0, 0, 0, 0, 0, 0, 0, 0, 0, 0, 0, 0, 0, 0, 0, 0, 0, 0, 0, 0, 0, 0, 0, 0, 0, 0, 0, 0, 0, 0, 0
0, 0, 59, 0, 3, 6, 16, 22, 40, 61, 122, 68, 120, 132, 139, 199, 225, 227, 219, 239, 261, 274, 258, 223, 214, 225, 234, 219, 197, 228, 209, 195, 207, 174, 172, 141, 124, 130, 104, 95, 93, 79, 55, 57, 45, 21, 1, 0, 0, 0, 0, 0, 0, 0, 0, 0, 0, 0, 0, 0, 0, 0, 0, 0, 0, 0, 0, 0, 0, 0, 0, 0, 0, 0, 0, 0, 0, 0, 0, 0, 0, 0, 0, 0, 0, 0, 0, 0, 0, 0, 0, 0, 0, 0, 0, 0, 0, 0, 0, 0, 0, 0, 0, 0, 0, 0
0, 0, 60, 2, 4, 14, 19, 29, 33, 53, 120, 96, 115, 140, 179, 204, 207, 217, 233, 241, 259, 249, 264, 227, 256, 212, 259, 247, 232, 205, 208, 199, 181, 179, 165, 153, 133, 131, 106, 109, 95, 97, 73, 58, 32, 17, 1, 0, 0, 0, 0, 0, 0, 0, 0, 0, 0, 0, 0, 0, 0, 0, 0, 0, 0, 0, 0, 0, 0, 0, 0, 0, 0, 0, 0, 0, 0, 0, 0, 0, 0, 0, 0, 0, 0, 0, 0, 0, 0, 0, 0, 0, 0, 0, 0, 0, 0, 0, 0, 0, 0, 0, 0, 0, 0, 0
0, 0, 61, 0, 2, 13, 9, 21, 43, 61, 112, 90, 102, 141, 174, 188, 224, 206, 234, 262, 243, 236, 263, 243, 298, 232, 237, 246, 203, 208, 209, 172, 190, 181, 169, 144, 163, 143, 125, 88, 94, 81, 63, 57, 25, 20, 3, 0, 0, 0, 0, 0, 0, 0, 0, 0, 0, 0, 0, 0, 0, 0, 0, 0, 0, 0, 0, 0, 0, 0, 0, 0, 0, 0, 0, 0, 0, 0, 0, 0, 0, 0, 0, 0, 0, 0, 0, 0, 0, 0, 0, 0, 0, 0, 0, 0, 0, 0, 0, 0, 0, 0, 0, 0, 0, 0
0, 0, 62, 5, 2, 10, 16, 27, 43, 59, 112, 99, 105, 127, 193, 212, 180, 209, 237, 228, 255, 251, 268, 238, 229, 242, 242, 255, 208, 212, 203, 189, 164, 141, 158, 136, 107, 129, 129, 98, 81, 70, 72, 55, 37, 34, 2, 0, 0, 0, 0, 0, 0, 0, 0, 0, 0, 0, 0, 0, 0, 0, 0, 0, 0, 0, 0, 0, 0, 0, 0, 0, 0, 0, 0, 0, 0, 0, 0, 0, 0, 0, 0, 0, 0, 0, 0, 0, 0, 0, 0, 0, 0, 0, 0, 0, 0, 0, 0, 0, 0, 0, 0, 0, 0, 0
0, 0, 63, 2, 2, 14, 14, 26, 44, 54, 109, 91, 110, 148, 165, 189, 195, 207, 219, 252, 244, 251, 205, 259, 223, 246, 255, 228, 229, 180, 199, 191, 166, 186, 158, 157, 140, 106, 124, 93, 87, 81, 65, 48, 40, 16, 1, 0, 0, 0, 0, 0, 0, 0, 0, 0, 0, 0, 0, 0, 0, 0, 0, 0, 0, 0, 0, 0, 0, 0, 0, 0, 0, 0, 0, 0, 0, 0, 0, 0, 0, 0, 0, 0, 0, 0, 0, 0, 0, 0, 0, 0, 0, 0, 0, 0, 0, 0, 0, 0, 0, 0, 0, 0, 0, 0
0, 0, 64, 1, 3, 4, 22, 29, 31, 41, 113, 88, 115, 130, 166, 209, 205, 209, 208, 225, 249, 254, 237, 238, 268, 252, 252, 211, 227, 212, 200, 211, 168, 170, 188, 147, 128, 118, 128, 92, 94, 89, 73, 52, 34, 23, 0, 0, 0, 0, 0, 0, 0, 0, 0, 0, 0, 0, 0, 0, 0, 0, 0, 0, 0, 0, 0, 0, 0, 0, 0, 0, 0, 0, 0, 0, 0, 0, 0, 0, 0, 0, 0, 0, 0, 0, 0, 0, 0, 0, 0, 0, 0, 0, 0, 0, 0, 0, 0, 0, 0, 0, 0, 0, 0, 0
0, 0, 65, 3, 5, 10, 10, 20, 40, 58, 100, 101, 116, 127, 169, 195, 208, 209, 216, 249, 247, 278, 236, 238, 251, 235, 203, 232, 240, 207, 177, 215, 172, 182, 140, 148, 146, 123, 124, 109, 106, 81, 66, 49, 47, 23, 0, 0, 0, 0, 0, 0, 0, 0, 0, 0, 0, 0, 0, 0, 0, 0, 0, 0, 0, 0, 0, 0, 0, 0, 0, 0, 0, 0, 0, 0, 0, 0, 0, 0, 0, 0, 0, 0, 0, 0, 0, 0, 0, 0, 0, 0, 0, 0, 0, 0, 0, 0, 0, 0, 0, 0, 0, 0, 0, 0
0, 0, 66, 4, 1, 9, 12, 15, 27, 65, 116, 118, 114, 127, 165, 179, 199, 217, 238, 265, 239, 243, 239, 266, 241, 266, 201, 226, 213, 260, 180, 175, 151, 151, 144, 145, 131, 117, 120, 99, 101, 73, 58, 61, 35, 24, 1, 0, 0, 0, 0, 0, 0, 0, 0, 0, 0, 0, 0, 0, 0, 0, 0, 0, 0, 0, 0, 0, 0, 0, 0, 0, 0, 0, 0, 0, 0, 0, 0, 0, 0, 0, 0, 0, 0, 0, 0, 0, 0, 0, 0, 0, 0, 0, 0, 0, 0, 0, 0, 0, 0, 0, 0, 0, 0, 0
0, 0, 67, 3, 4, 6, 18, 29, 50, 57, 106, 97, 125, 141, 156, 233, 207, 224, 225, 249, 244, 248, 279, 284, 243, 234, 240, 227, 240, 224, 201, 213, 194, 166, 137, 107, 135, 141, 129, 94, 86, 79, 63, 58, 39, 19, 1, 0, 0, 0, 0, 0, 0, 0, 0, 0, 0, 0, 0, 0, 0, 0, 0, 0, 0, 0, 0, 0, 0, 0, 0, 0, 0, 0, 0, 0, 0, 0, 0, 0, 0, 0, 0, 0, 0, 0, 0, 0, 0, 0, 0, 0, 0, 0, 0, 0, 0, 0, 0, 0, 0, 0, 0, 0, 0, 0
0, 0, 68, 2, 4, 11, 12, 34, 47, 58, 152, 103, 128, 160, 145, 189, 188, 200, 216, 247, 205, 234, 272, 224, 224, 232, 247, 230, 241, 189, 209, 172, 176, 174, 162, 133, 145, 120, 121, 102, 89, 72, 52, 53, 31, 17, 3, 0, 0, 0, 0, 0, 0, 0, 0, 0, 0, 0, 0, 0, 0, 0, 0, 0, 0, 0, 0, 0, 0, 0, 0, 0, 0, 0, 0, 0, 0, 0, 0, 0, 0, 0, 0, 0, 0, 0, 0, 0, 0, 0, 0, 0, 0, 0, 0, 0, 0, 0, 0, 0, 0, 0, 0, 0, 0, 0
0, 0, 69, 6, 6, 10, 14, 34, 48, 65, 110, 104, 99, 126, 176, 188, 208, 189, 240, 229, 247, 234, 225, 258, 203, 205, 216, 232, 229, 224, 206, 203, 178, 171, 151, 160, 134, 130, 118, 107, 86, 92, 82, 60, 54, 29, 1, 0, 0, 0, 0, 0, 0, 0, 0, 0, 0, 0, 0, 0, 0, 0, 0, 0, 0, 0, 0, 0, 0, 0, 0, 0, 0, 0, 0, 0, 0, 0, 0, 0, 0, 0, 0, 0, 0, 0, 0, 0, 0, 0, 0, 0, 0, 0, 0, 0, 0, 0, 0, 0, 0, 0, 0, 0, 0, 0
0, 0, 70, 1, 4, 9, 10, 33, 38, 55, 141, 103, 107, 144, 164, 197, 195, 230, 228, 231, 251, 264, 271, 263, 226, 230, 232, 225, 240, 182, 183, 200, 198, 137, 142, 148, 136, 136, 113, 103, 95, 84, 81, 54, 37, 19, 0, 0, 0, 0, 0, 0, 0, 0, 0, 0, 0, 0, 0, 0, 0, 0, 0, 0, 0, 0, 0, 0, 0, 0, 0, 0, 0, 0, 0, 0, 0, 0, 0, 0, 0, 0, 0, 0, 0, 0, 0, 0, 0, 0, 0, 0, 0, 0, 0, 0, 0, 0, 0, 0, 0, 0, 0, 0, 0, 0
0, 0, 71, 7, 4, 9, 15, 30, 54, 57, 128, 95, 108, 141, 174, 180, 215, 227, 214, 265, 233, 253, 230, 261, 247, 259, 224, 244, 230, 206, 184, 189, 171, 145, 162, 175, 175, 120, 123, 92, 88, 90, 79, 68, 35, 18, 1, 0, 0, 0, 0, 0, 0, 0, 0, 0, 0, 0, 0, 0, 0, 0, 0, 0, 0, 0, 0, 0, 0, 0, 0, 0, 0, 0, 0, 0, 0, 0, 0, 0, 0, 0, 0, 0, 0, 0, 0, 0, 0, 0, 0, 0, 0, 0, 0, 0, 0, 0, 0, 0, 0, 0, 0, 0, 0, 0
0, 0, 72, 6, 5, 10, 9, 18, 48, 61, 110, 104, 121, 153, 163, 197, 203, 228, 232, 239, 253, 249, 264, 251, 246, 265, 216, 217, 207, 222, 178, 201, 186, 182, 184, 164, 134, 130, 118, 102, 89, 94, 53, 36, 55, 14, 0, 0, 0, 0, 0, 0, 0, 0, 0, 0, 0, 0, 0, 0, 0, 0, 0, 0, 0, 0, 0, 0, 0, 0, 0, 0, 0, 0, 0, 0, 0, 0, 0, 0, 0, 0, 0, 0, 0, 0, 0, 0, 0, 0, 0, 0, 0, 0, 0, 0, 0, 0, 0, 0, 0, 0, 0, 0, 0, 0
0, 0, 73, 0, 1, 6, 12, 35, 40, 59, 125, 93, 98, 129, 183, 203, 234, 233, 224, 245, 246, 252, 256, 263, 246, 232, 220, 249, 233, 219, 201, 184, 179, 166, 162, 141, 155, 123, 118, 109, 97, 82, 51, 54, 39, 34, 1, 0, 0, 0, 0, 0, 0, 0, 0, 0, 0, 0, 0, 0, 0, 0, 0, 0, 0, 0, 0, 0, 0, 0, 0, 0, 0, 0, 0, 0, 0, 0, 0, 0, 0, 0, 0, 0, 0, 0, 0, 0, 0, 0, 0, 0, 0, 0, 0, 0, 0, 0, 0, 0, 0, 0, 0, 0, 0, 0
0, 0, 74, 6, 2, 9, 9, 21, 31, 59, 101, 95, 107, 129, 167, 197, 213, 231, 240, 252, 229, 248, 263, 238, 242, 240, 234, 203, 192, 208, 186, 172, 196, 170, 161, 161, 138, 134, 100, 100, 101, 92, 76, 56, 32, 33, 1, 0, 0, 0, 0, 0, 0, 0, 0, 0, 0, 0, 0, 0, 0, 0, 0, 0, 0, 0, 0, 0, 0, 0, 0, 0, 0, 0, 0, 0, 0, 0, 0, 0, 0, 0, 0, 0, 0, 0, 0, 0, 0, 0, 0, 0, 0, 0, 0, 0, 0, 0, 0, 0, 0, 0, 0, 0, 0, 0
0, 0, 75, 6, 2, 4, 20, 26, 27, 44, 136, 99, 123, 139, 193, 180, 204, 203, 219, 253, 243, 251, 268, 264, 196, 253, 247, 211, 252, 230, 187, 180, 180, 173, 149, 138, 131, 122, 124, 99, 74, 76, 67, 45, 32, 18, 3, 0, 0, 0, 0, 0, 0, 0, 0, 0, 0, 0, 0, 0, 0, 0, 0, 0, 0, 0, 0, 0, 0, 0, 0, 0, 0, 0, 0, 0, 0, 0, 0, 0, 0, 0, 0, 0, 0, 0, 0, 0, 0, 0, 0, 0, 0, 0, 0, 0, 0, 0, 0, 0, 0, 0, 0, 0, 0, 0
0, 0, 76, 2, 7, 11, 9, 28, 37, 45, 129, 85, 126, 136, 168, 216, 215, 184, 226, 216, 253, 245, 255, 265, 203, 250, 239, 210, 228, 212, 188, 187, 167, 171, 177, 146, 115, 142, 115, 75, 97, 89, 75, 54, 40, 15, 0, 0, 0, 0, 0, 0, 0, 0, 0, 0, 0, 0, 0, 0, 0, 0, 0, 0, 0, 0, 0, 0, 0, 0, 0, 0, 0, 0, 0, 0, 0, 0, 0, 0, 0, 0, 0, 0, 0, 0, 0, 0, 0, 0, 0, 0, 0, 0, 0, 0, 0, 0, 0, 0, 0, 0, 0, 0, 0, 0
0, 0, 77, 2, 6, 9, 14, 28, 49, 66, 98, 92, 110, 145, 183, 191, 199, 194, 235, 263, 264, 263, 281, 218, 241, 225, 260, 251, 239, 198, 186, 179, 173, 174, 158, 176, 127, 123, 95, 110, 95, 84, 71, 53, 43, 20, 0, 0, 0, 0, 0, 0, 0, 0, 0, 0, 0, 0, 0, 0, 0, 0, 0, 0, 0, 0, 0, 0, 0, 0, 0, 0, 0, 0, 0, 0, 0, 0, 0, 0, 0, 0, 0, 0, 0, 0, 0, 0, 0, 0, 0, 0, 0, 0, 0, 0, 0, 0, 0, 0, 0, 0, 0, 0, 0, 0
