# TOPAS Version: 3.1.p3
# Parameter File: REDLEN_small_phantom_mc_basic_2cm.txt
# Results for scorer PhantomDose
# Scored on surface: CdTeCrystal1/YPlusSurface
# X in 100 bins of 0.03332 cm
# Y in 1 bin  of 0.4 cm
# Z in 100 bins of 0.0375 cm
# SurfaceTrackCount : Sum   
# Binned by incident track energy in 100 bins of 0.00104 MeV from 0.016 MeV to 0.12 MeV
# First bin is underflow, next to last bin is overflow, last bin is for case of no incident track.
0, 0, 0, 0, 0, 0, 1, 0, 1, 1, 1, 0, 1, 1, 1, 6, 1, 2, 1, 1, 2, 1, 1, 2, 5, 4, 4, 3, 1, 4, 2, 4, 3, 0, 4, 0, 1, 1, 1, 1, 2, 0, 0, 1, 0, 0, 0, 0, 0, 0, 0, 0, 0, 0, 0, 0, 0, 0, 0, 0, 0, 0, 0, 0, 0, 0, 0, 0, 0, 0, 0, 0, 0, 0, 0, 0, 0, 0, 0, 0, 0, 0, 0, 0, 0, 0, 0, 0, 0, 0, 0, 0, 0, 0, 0, 0, 0, 0, 0, 0, 0, 0, 0, 0, 0, 0
0, 0, 1, 1, 0, 0, 0, 0, 0, 0, 0, 0, 3, 2, 1, 3, 0, 3, 5, 1, 2, 3, 4, 3, 3, 0, 4, 0, 3, 3, 3, 1, 0, 2, 1, 2, 1, 0, 1, 0, 0, 1, 0, 2, 2, 0, 0, 0, 0, 0, 0, 0, 0, 0, 0, 0, 0, 0, 0, 0, 0, 0, 0, 0, 0, 0, 0, 0, 0, 0, 0, 0, 0, 0, 0, 0, 0, 0, 0, 0, 0, 0, 0, 0, 0, 0, 0, 0, 0, 0, 0, 0, 0, 0, 0, 0, 0, 0, 0, 0, 0, 0, 0, 0, 0, 0
0, 0, 2, 1, 0, 0, 0, 0, 0, 0, 0, 0, 1, 0, 3, 1, 3, 1, 3, 2, 5, 4, 3, 0, 6, 2, 4, 1, 3, 1, 9, 2, 3, 3, 1, 2, 2, 1, 2, 1, 0, 2, 0, 1, 0, 0, 0, 0, 0, 0, 0, 0, 0, 0, 0, 0, 0, 0, 0, 0, 0, 0, 0, 0, 0, 0, 0, 0, 0, 0, 0, 0, 0, 0, 0, 0, 0, 0, 0, 0, 0, 0, 0, 0, 0, 0, 0, 0, 0, 0, 0, 0, 0, 0, 0, 0, 0, 0, 0, 0, 0, 0, 0, 0, 0, 0
0, 0, 3, 0, 0, 0, 0, 0, 0, 0, 0, 2, 0, 2, 0, 0, 0, 1, 1, 3, 2, 1, 5, 5, 2, 1, 4, 2, 1, 1, 2, 1, 0, 4, 0, 1, 1, 3, 1, 0, 1, 1, 1, 0, 0, 0, 0, 0, 0, 0, 0, 0, 0, 0, 0, 0, 0, 0, 0, 0, 0, 0, 0, 0, 0, 0, 0, 0, 0, 0, 0, 0, 0, 0, 0, 0, 0, 0, 0, 0, 0, 0, 0, 0, 0, 0, 0, 0, 0, 0, 0, 0, 0, 0, 0, 0, 0, 0, 0, 0, 0, 0, 0, 0, 0, 0
0, 0, 4, 0, 0, 0, 0, 0, 0, 0, 2, 1, 0, 1, 0, 4, 3, 3, 1, 1, 3, 3, 3, 1, 2, 1, 4, 2, 2, 1, 3, 3, 4, 1, 2, 0, 1, 3, 0, 3, 0, 0, 3, 0, 0, 0, 0, 0, 0, 0, 0, 0, 0, 0, 0, 0, 0, 0, 0, 0, 0, 0, 0, 0, 0, 0, 0, 0, 0, 0, 0, 0, 0, 0, 0, 0, 0, 0, 0, 0, 0, 0, 0, 0, 0, 0, 0, 0, 0, 0, 0, 0, 0, 0, 0, 0, 0, 0, 0, 0, 0, 0, 0, 0, 0, 0
0, 0, 5, 4, 3, 1, 6, 7, 21, 26, 58, 35, 39, 66, 69, 84, 94, 83, 84, 98, 119, 103, 103, 111, 91, 108, 105, 89, 79, 80, 82, 82, 79, 85, 70, 70, 60, 44, 49, 40, 49, 23, 44, 23, 18, 9, 1, 0, 0, 0, 0, 0, 0, 0, 0, 0, 0, 0, 0, 0, 0, 0, 0, 0, 0, 0, 0, 0, 0, 0, 0, 0, 0, 0, 0, 0, 0, 0, 0, 0, 0, 0, 0, 0, 0, 0, 0, 0, 0, 0, 0, 0, 0, 0, 0, 0, 0, 0, 0, 0, 0, 0, 0, 0, 0, 0
0, 0, 6, 5, 0, 7, 14, 27, 44, 54, 131, 114, 91, 126, 168, 209, 211, 203, 230, 225, 256, 239, 229, 228, 229, 226, 216, 239, 198, 186, 187, 194, 168, 174, 146, 125, 135, 143, 118, 105, 84, 100, 64, 52, 35, 27, 3, 0, 0, 0, 0, 0, 0, 0, 0, 0, 0, 0, 0, 0, 0, 0, 0, 0, 0, 0, 0, 0, 0, 0, 0, 0, 0, 0, 0, 0, 0, 0, 0, 0, 0, 0, 0, 0, 0, 0, 0, 0, 0, 0, 0, 0, 0, 0, 0, 0, 0, 0, 0, 0, 0, 0, 0, 0, 0, 0
0, 0, 7, 1, 2, 7, 17, 24, 39, 53, 144, 91, 118, 130, 138, 202, 197, 203, 241, 269, 259, 252, 257, 254, 251, 260, 220, 234, 222, 222, 209, 195, 168, 174, 157, 148, 146, 135, 125, 99, 97, 74, 65, 52, 33, 28, 1, 0, 0, 0, 0, 0, 0, 0, 0, 0, 0, 0, 0, 0, 0, 0, 0, 0, 0, 0, 0, 0, 0, 0, 0, 0, 0, 0, 0, 0, 0, 0, 0, 0, 0, 0, 0, 0, 0, 0, 0, 0, 0, 0, 0, 0, 0, 0, 0, 0, 0, 0, 0, 0, 0, 0, 0, 0, 0, 0
0, 0, 8, 1, 5, 8, 15, 25, 29, 67, 112, 93, 100, 161, 179, 188, 200, 206, 218, 276, 268, 291, 234, 245, 242, 223, 219, 233, 235, 198, 172, 197, 184, 198, 152, 151, 131, 136, 108, 111, 94, 84, 71, 52, 33, 23, 1, 0, 0, 0, 0, 0, 0, 0, 0, 0, 0, 0, 0, 0, 0, 0, 0, 0, 0, 0, 0, 0, 0, 0, 0, 0, 0, 0, 0, 0, 0, 0, 0, 0, 0, 0, 0, 0, 0, 0, 0, 0, 0, 0, 0, 0, 0, 0, 0, 0, 0, 0, 0, 0, 0, 0, 0, 0, 0, 0
0, 0, 9, 0, 3, 6, 15, 22, 42, 60, 123, 100, 101, 132, 163, 175, 200, 228, 228, 265, 277, 258, 241, 281, 247, 242, 269, 192, 212, 203, 226, 185, 174, 183, 152, 158, 132, 136, 113, 92, 93, 75, 83, 53, 41, 19, 2, 0, 0, 0, 0, 0, 0, 0, 0, 0, 0, 0, 0, 0, 0, 0, 0, 0, 0, 0, 0, 0, 0, 0, 0, 0, 0, 0, 0, 0, 0, 0, 0, 0, 0, 0, 0, 0, 0, 0, 0, 0, 0, 0, 0, 0, 0, 0, 0, 0, 0, 0, 0, 0, 0, 0, 0, 0, 0, 0
0, 0, 10, 5, 0, 10, 20, 17, 41, 63, 117, 86, 142, 156, 188, 212, 188, 228, 198, 230, 272, 264, 255, 268, 218, 232, 229, 222, 230, 196, 220, 179, 188, 148, 132, 153, 157, 129, 131, 104, 118, 107, 85, 59, 38, 13, 1, 0, 0, 0, 0, 0, 0, 0, 0, 0, 0, 0, 0, 0, 0, 0, 0, 0, 0, 0, 0, 0, 0, 0, 0, 0, 0, 0, 0, 0, 0, 0, 0, 0, 0, 0, 0, 0, 0, 0, 0, 0, 0, 0, 0, 0, 0, 0, 0, 0, 0, 0, 0, 0, 0, 0, 0, 0, 0, 0
0, 0, 11, 1, 5, 8, 22, 21, 31, 52, 105, 104, 127, 153, 156, 197, 205, 230, 258, 236, 283, 206, 236, 249, 259, 244, 252, 202, 189, 193, 209, 196, 178, 167, 149, 151, 115, 121, 95, 92, 106, 70, 63, 72, 34, 22, 0, 0, 0, 0, 0, 0, 0, 0, 0, 0, 0, 0, 0, 0, 0, 0, 0, 0, 0, 0, 0, 0, 0, 0, 0, 0, 0, 0, 0, 0, 0, 0, 0, 0, 0, 0, 0, 0, 0, 0, 0, 0, 0, 0, 0, 0, 0, 0, 0, 0, 0, 0, 0, 0, 0, 0, 0, 0, 0, 0
0, 0, 12, 6, 4, 9, 10, 33, 23, 46, 118, 115, 108, 139, 171, 193, 219, 190, 217, 261, 283, 265, 240, 285, 258, 241, 239, 231, 199, 194, 162, 182, 156, 178, 179, 129, 127, 122, 120, 91, 89, 77, 60, 58, 35, 17, 2, 0, 0, 0, 0, 0, 0, 0, 0, 0, 0, 0, 0, 0, 0, 0, 0, 0, 0, 0, 0, 0, 0, 0, 0, 0, 0, 0, 0, 0, 0, 0, 0, 0, 0, 0, 0, 0, 0, 0, 0, 0, 0, 0, 0, 0, 0, 0, 0, 0, 0, 0, 0, 0, 0, 0, 0, 0, 0, 0
0, 0, 13, 2, 2, 10, 23, 24, 43, 62, 107, 92, 129, 160, 171, 198, 190, 221, 233, 238, 237, 226, 228, 236, 256, 249, 238, 243, 213, 202, 183, 197, 200, 161, 171, 151, 150, 112, 105, 107, 90, 88, 72, 55, 47, 23, 1, 0, 0, 0, 0, 0, 0, 0, 0, 0, 0, 0, 0, 0, 0, 0, 0, 0, 0, 0, 0, 0, 0, 0, 0, 0, 0, 0, 0, 0, 0, 0, 0, 0, 0, 0, 0, 0, 0, 0, 0, 0, 0, 0, 0, 0, 0, 0, 0, 0, 0, 0, 0, 0, 0, 0, 0, 0, 0, 0
0, 0, 14, 2, 3, 6, 13, 22, 31, 56, 118, 106, 115, 155, 160, 199, 177, 219, 236, 259, 253, 252, 248, 248, 242, 240, 226, 210, 188, 220, 206, 190, 186, 157, 144, 129, 117, 129, 128, 92, 76, 73, 65, 62, 39, 17, 2, 0, 0, 0, 0, 0, 0, 0, 0, 0, 0, 0, 0, 0, 0, 0, 0, 0, 0, 0, 0, 0, 0, 0, 0, 0, 0, 0, 0, 0, 0, 0, 0, 0, 0, 0, 0, 0, 0, 0, 0, 0, 0, 0, 0, 0, 0, 0, 0, 0, 0, 0, 0, 0, 0, 0, 0, 0, 0, 0
0, 0, 15, 8, 4, 10, 21, 27, 45, 60, 117, 83, 134, 152, 173, 215, 205, 239, 236, 222, 249, 224, 247, 235, 255, 222, 224, 239, 210, 208, 182, 196, 158, 169, 153, 149, 132, 117, 116, 110, 88, 63, 66, 53, 36, 23, 0, 0, 0, 0, 0, 0, 0, 0, 0, 0, 0, 0, 0, 0, 0, 0, 0, 0, 0, 0, 0, 0, 0, 0, 0, 0, 0, 0, 0, 0, 0, 0, 0, 0, 0, 0, 0, 0, 0, 0, 0, 0, 0, 0, 0, 0, 0, 0, 0, 0, 0, 0, 0, 0, 0, 0, 0, 0, 0, 0
0, 0, 16, 3, 5, 8, 20, 35, 38, 56, 88, 93, 100, 160, 183, 202, 225, 191, 213, 218, 248, 205, 265, 245, 247, 240, 226, 220, 201, 222, 204, 170, 159, 157, 147, 139, 132, 121, 93, 96, 104, 70, 67, 62, 46, 25, 1, 0, 0, 0, 0, 0, 0, 0, 0, 0, 0, 0, 0, 0, 0, 0, 0, 0, 0, 0, 0, 0, 0, 0, 0, 0, 0, 0, 0, 0, 0, 0, 0, 0, 0, 0, 0, 0, 0, 0, 0, 0, 0, 0, 0, 0, 0, 0, 0, 0, 0, 0, 0, 0, 0, 0, 0, 0, 0, 0
0, 0, 17, 2, 2, 7, 17, 28, 36, 58, 123, 85, 111, 122, 177, 187, 180, 225, 241, 247, 246, 281, 239, 245, 251, 240, 233, 202, 243, 184, 193, 197, 169, 162, 170, 168, 135, 140, 112, 111, 103, 78, 65, 50, 40, 21, 1, 0, 0, 0, 0, 0, 0, 0, 0, 0, 0, 0, 0, 0, 0, 0, 0, 0, 0, 0, 0, 0, 0, 0, 0, 0, 0, 0, 0, 0, 0, 0, 0, 0, 0, 0, 0, 0, 0, 0, 0, 0, 0, 0, 0, 0, 0, 0, 0, 0, 0, 0, 0, 0, 0, 0, 0, 0, 0, 0
0, 0, 18, 5, 7, 6, 19, 18, 27, 68, 125, 74, 115, 148, 175, 202, 186, 222, 233, 270, 255, 254, 263, 235, 230, 205, 251, 203, 208, 232, 214, 201, 153, 167, 167, 135, 150, 124, 118, 84, 112, 76, 57, 69, 39, 24, 2, 0, 0, 0, 0, 0, 0, 0, 0, 0, 0, 0, 0, 0, 0, 0, 0, 0, 0, 0, 0, 0, 0, 0, 0, 0, 0, 0, 0, 0, 0, 0, 0, 0, 0, 0, 0, 0, 0, 0, 0, 0, 0, 0, 0, 0, 0, 0, 0, 0, 0, 0, 0, 0, 0, 0, 0, 0, 0, 0
0, 0, 19, 1, 2, 6, 23, 20, 35, 46, 104, 100, 114, 146, 181, 217, 197, 182, 226, 255, 231, 238, 247, 232, 262, 229, 207, 216, 243, 209, 189, 168, 201, 184, 164, 144, 131, 126, 119, 116, 93, 90, 76, 55, 49, 18, 3, 0, 0, 0, 0, 0, 0, 0, 0, 0, 0, 0, 0, 0, 0, 0, 0, 0, 0, 0, 0, 0, 0, 0, 0, 0, 0, 0, 0, 0, 0, 0, 0, 0, 0, 0, 0, 0, 0, 0, 0, 0, 0, 0, 0, 0, 0, 0, 0, 0, 0, 0, 0, 0, 0, 0, 0, 0, 0, 0
0, 0, 20, 5, 5, 11, 13, 27, 42, 57, 134, 109, 130, 133, 183, 192, 194, 183, 211, 272, 266, 240, 247, 236, 229, 237, 202, 206, 224, 220, 190, 182, 166, 184, 164, 139, 132, 131, 133, 105, 85, 71, 53, 63, 32, 28, 0, 0, 0, 0, 0, 0, 0, 0, 0, 0, 0, 0, 0, 0, 0, 0, 0, 0, 0, 0, 0, 0, 0, 0, 0, 0, 0, 0, 0, 0, 0, 0, 0, 0, 0, 0, 0, 0, 0, 0, 0, 0, 0, 0, 0, 0, 0, 0, 0, 0, 0, 0, 0, 0, 0, 0, 0, 0, 0, 0
0, 0, 21, 7, 2, 13, 18, 29, 49, 57, 108, 97, 124, 157, 167, 201, 219, 221, 242, 257, 231, 238, 245, 246, 211, 244, 200, 188, 243, 201, 210, 202, 152, 170, 168, 170, 166, 129, 122, 107, 75, 74, 64, 69, 50, 21, 1, 0, 0, 0, 0, 0, 0, 0, 0, 0, 0, 0, 0, 0, 0, 0, 0, 0, 0, 0, 0, 0, 0, 0, 0, 0, 0, 0, 0, 0, 0, 0, 0, 0, 0, 0, 0, 0, 0, 0, 0, 0, 0, 0, 0, 0, 0, 0, 0, 0, 0, 0, 0, 0, 0, 0, 0, 0, 0, 0
0, 0, 22, 2, 4, 9, 18, 25, 39, 66, 123, 110, 102, 134, 185, 163, 169, 201, 250, 238, 265, 234, 263, 244, 253, 230, 232, 232, 223, 223, 190, 189, 162, 168, 143, 161, 154, 114, 133, 96, 83, 67, 60, 59, 37, 23, 1, 0, 0, 0, 0, 0, 0, 0, 0, 0, 0, 0, 0, 0, 0, 0, 0, 0, 0, 0, 0, 0, 0, 0, 0, 0, 0, 0, 0, 0, 0, 0, 0, 0, 0, 0, 0, 0, 0, 0, 0, 0, 0, 0, 0, 0, 0, 0, 0, 0, 0, 0, 0, 0, 0, 0, 0, 0, 0, 0
0, 0, 23, 1, 3, 5, 20, 24, 47, 48, 123, 98, 121, 147, 196, 176, 211, 211, 231, 223, 221, 248, 280, 228, 243, 237, 219, 248, 182, 209, 170, 201, 188, 177, 158, 159, 151, 139, 118, 106, 76, 79, 64, 60, 41, 14, 4, 0, 0, 0, 0, 0, 0, 0, 0, 0, 0, 0, 0, 0, 0, 0, 0, 0, 0, 0, 0, 0, 0, 0, 0, 0, 0, 0, 0, 0, 0, 0, 0, 0, 0, 0, 0, 0, 0, 0, 0, 0, 0, 0, 0, 0, 0, 0, 0, 0, 0, 0, 0, 0, 0, 0, 0, 0, 0, 0
0, 0, 24, 2, 3, 7, 16, 28, 41, 47, 120, 93, 117, 153, 174, 197, 206, 213, 212, 240, 248, 255, 243, 229, 228, 256, 226, 193, 239, 231, 200, 198, 195, 176, 160, 134, 154, 118, 125, 112, 80, 87, 58, 71, 42, 19, 3, 0, 0, 0, 0, 0, 0, 0, 0, 0, 0, 0, 0, 0, 0, 0, 0, 0, 0, 0, 0, 0, 0, 0, 0, 0, 0, 0, 0, 0, 0, 0, 0, 0, 0, 0, 0, 0, 0, 0, 0, 0, 0, 0, 0, 0, 0, 0, 0, 0, 0, 0, 0, 0, 0, 0, 0, 0, 0, 0
0, 0, 25, 1, 4, 10, 20, 32, 45, 62, 111, 99, 128, 149, 182, 229, 165, 215, 225, 236, 251, 253, 259, 253, 223, 191, 217, 237, 196, 195, 209, 195, 179, 176, 158, 161, 127, 134, 103, 93, 82, 74, 57, 59, 50, 29, 2, 0, 0, 0, 0, 0, 0, 0, 0, 0, 0, 0, 0, 0, 0, 0, 0, 0, 0, 0, 0, 0, 0, 0, 0, 0, 0, 0, 0, 0, 0, 0, 0, 0, 0, 0, 0, 0, 0, 0, 0, 0, 0, 0, 0, 0, 0, 0, 0, 0, 0, 0, 0, 0, 0, 0, 0, 0, 0, 0
0, 0, 26, 4, 6, 5, 15, 30, 40, 54, 117, 81, 127, 142, 169, 209, 211, 248, 224, 225, 239, 252, 245, 213, 241, 224, 248, 240, 224, 198, 235, 203, 155, 147, 185, 145, 167, 134, 99, 103, 106, 81, 73, 59, 45, 18, 1, 0, 0, 0, 0, 0, 0, 0, 0, 0, 0, 0, 0, 0, 0, 0, 0, 0, 0, 0, 0, 0, 0, 0, 0, 0, 0, 0, 0, 0, 0, 0, 0, 0, 0, 0, 0, 0, 0, 0, 0, 0, 0, 0, 0, 0, 0, 0, 0, 0, 0, 0, 0, 0, 0, 0, 0, 0, 0, 0
0, 0, 27, 2, 4, 12, 19, 24, 34, 63, 126, 112, 107, 137, 179, 198, 213, 230, 234, 243, 236, 244, 251, 237, 216, 248, 228, 252, 227, 198, 195, 195, 182, 172, 144, 131, 126, 125, 107, 104, 90, 65, 73, 47, 28, 16, 3, 0, 0, 0, 0, 0, 0, 0, 0, 0, 0, 0, 0, 0, 0, 0, 0, 0, 0, 0, 0, 0, 0, 0, 0, 0, 0, 0, 0, 0, 0, 0, 0, 0, 0, 0, 0, 0, 0, 0, 0, 0, 0, 0, 0, 0, 0, 0, 0, 0, 0, 0, 0, 0, 0, 0, 0, 0, 0, 0
0, 0, 28, 4, 1, 5, 20, 32, 38, 61, 119, 96, 114, 155, 163, 185, 195, 217, 239, 227, 243, 222, 236, 266, 280, 235, 208, 223, 210, 195, 205, 189, 179, 155, 151, 148, 130, 122, 114, 88, 79, 95, 64, 42, 35, 30, 1, 0, 0, 0, 0, 0, 0, 0, 0, 0, 0, 0, 0, 0, 0, 0, 0, 0, 0, 0, 0, 0, 0, 0, 0, 0, 0, 0, 0, 0, 0, 0, 0, 0, 0, 0, 0, 0, 0, 0, 0, 0, 0, 0, 0, 0, 0, 0, 0, 0, 0, 0, 0, 0, 0, 0, 0, 0, 0, 0
0, 0, 29, 19, 2, 8, 22, 30, 33, 61, 111, 86, 123, 115, 167, 168, 203, 175, 260, 245, 244, 263, 240, 235, 237, 234, 243, 217, 207, 183, 195, 174, 151, 181, 145, 143, 152, 124, 124, 94, 83, 81, 70, 60, 36, 23, 0, 0, 0, 0, 0, 0, 0, 0, 0, 0, 0, 0, 0, 0, 0, 0, 0, 0, 0, 0, 0, 0, 0, 0, 0, 0, 0, 0, 0, 0, 0, 0, 0, 0, 0, 0, 0, 0, 0, 0, 0, 0, 0, 0, 0, 0, 0, 0, 0, 0, 0, 0, 0, 0, 0, 0, 0, 0, 0, 0
0, 0, 30, 1, 1, 8, 11, 30, 44, 60, 128, 105, 118, 127, 170, 221, 213, 230, 245, 209, 237, 262, 253, 232, 239, 234, 230, 239, 214, 196, 192, 183, 172, 173, 166, 156, 131, 127, 143, 108, 118, 78, 69, 54, 39, 21, 2, 0, 0, 0, 0, 0, 0, 0, 0, 0, 0, 0, 0, 0, 0, 0, 0, 0, 0, 0, 0, 0, 0, 0, 0, 0, 0, 0, 0, 0, 0, 0, 0, 0, 0, 0, 0, 0, 0, 0, 0, 0, 0, 0, 0, 0, 0, 0, 0, 0, 0, 0, 0, 0, 0, 0, 0, 0, 0, 0
0, 0, 31, 2, 4, 5, 18, 20, 40, 68, 112, 81, 101, 139, 177, 170, 208, 227, 194, 231, 278, 233, 234, 242, 270, 276, 210, 229, 207, 193, 213, 215, 177, 166, 176, 150, 121, 147, 103, 101, 95, 96, 69, 53, 39, 21, 0, 0, 0, 0, 0, 0, 0, 0, 0, 0, 0, 0, 0, 0, 0, 0, 0, 0, 0, 0, 0, 0, 0, 0, 0, 0, 0, 0, 0, 0, 0, 0, 0, 0, 0, 0, 0, 0, 0, 0, 0, 0, 0, 0, 0, 0, 0, 0, 0, 0, 0, 0, 0, 0, 0, 0, 0, 0, 0, 0
0, 0, 32, 0, 4, 5, 16, 26, 44, 64, 112, 90, 115, 133, 177, 192, 214, 213, 232, 236, 222, 261, 247, 258, 228, 226, 236, 239, 230, 221, 186, 197, 186, 189, 154, 140, 144, 137, 119, 110, 90, 94, 79, 48, 31, 19, 3, 0, 0, 0, 0, 0, 0, 0, 0, 0, 0, 0, 0, 0, 0, 0, 0, 0, 0, 0, 0, 0, 0, 0, 0, 0, 0, 0, 0, 0, 0, 0, 0, 0, 0, 0, 0, 0, 0, 0, 0, 0, 0, 0, 0, 0, 0, 0, 0, 0, 0, 0, 0, 0, 0, 0, 0, 0, 0, 0
0, 0, 33, 2, 3, 15, 16, 27, 45, 58, 134, 78, 123, 118, 172, 198, 183, 226, 239, 268, 224, 280, 255, 283, 249, 268, 236, 214, 217, 199, 184, 187, 156, 163, 166, 160, 133, 151, 113, 116, 86, 59, 62, 61, 43, 20, 2, 0, 0, 0, 0, 0, 0, 0, 0, 0, 0, 0, 0, 0, 0, 0, 0, 0, 0, 0, 0, 0, 0, 0, 0, 0, 0, 0, 0, 0, 0, 0, 0, 0, 0, 0, 0, 0, 0, 0, 0, 0, 0, 0, 0, 0, 0, 0, 0, 0, 0, 0, 0, 0, 0, 0, 0, 0, 0, 0
0, 0, 34, 2, 5, 8, 19, 31, 47, 70, 125, 105, 118, 154, 192, 212, 174, 205, 237, 218, 242, 258, 224, 256, 266, 271, 242, 215, 197, 229, 203, 173, 176, 141, 152, 169, 123, 99, 126, 116, 93, 90, 68, 54, 55, 18, 1, 0, 0, 0, 0, 0, 0, 0, 0, 0, 0, 0, 0, 0, 0, 0, 0, 0, 0, 0, 0, 0, 0, 0, 0, 0, 0, 0, 0, 0, 0, 0, 0, 0, 0, 0, 0, 0, 0, 0, 0, 0, 0, 0, 0, 0, 0, 0, 0, 0, 0, 0, 0, 0, 0, 0, 0, 0, 0, 0
0, 0, 35, 3, 2, 5, 17, 25, 35, 62, 135, 119, 125, 152, 184, 198, 232, 217, 232, 241, 206, 246, 252, 235, 237, 233, 264, 209, 210, 174, 227, 181, 191, 162, 158, 139, 145, 127, 127, 113, 90, 65, 74, 56, 41, 16, 3, 0, 0, 0, 0, 0, 0, 0, 0, 0, 0, 0, 0, 0, 0, 0, 0, 0, 0, 0, 0, 0, 0, 0, 0, 0, 0, 0, 0, 0, 0, 0, 0, 0, 0, 0, 0, 0, 0, 0, 0, 0, 0, 0, 0, 0, 0, 0, 0, 0, 0, 0, 0, 0, 0, 0, 0, 0, 0, 0
0, 0, 36, 2, 3, 10, 13, 24, 36, 51, 116, 99, 93, 133, 186, 205, 194, 219, 232, 248, 274, 251, 234, 234, 236, 237, 267, 219, 234, 197, 181, 176, 174, 162, 152, 171, 139, 136, 121, 119, 82, 61, 63, 29, 50, 14, 1, 0, 0, 0, 0, 0, 0, 0, 0, 0, 0, 0, 0, 0, 0, 0, 0, 0, 0, 0, 0, 0, 0, 0, 0, 0, 0, 0, 0, 0, 0, 0, 0, 0, 0, 0, 0, 0, 0, 0, 0, 0, 0, 0, 0, 0, 0, 0, 0, 0, 0, 0, 0, 0, 0, 0, 0, 0, 0, 0
0, 0, 37, 2, 5, 5, 7, 28, 30, 61, 111, 105, 133, 142, 153, 182, 188, 228, 244, 271, 269, 213, 262, 276, 234, 238, 239, 237, 244, 195, 206, 168, 206, 177, 139, 162, 117, 149, 117, 99, 80, 93, 64, 55, 36, 22, 0, 0, 0, 0, 0, 0, 0, 0, 0, 0, 0, 0, 0, 0, 0, 0, 0, 0, 0, 0, 0, 0, 0, 0, 0, 0, 0, 0, 0, 0, 0, 0, 0, 0, 0, 0, 0, 0, 0, 0, 0, 0, 0, 0, 0, 0, 0, 0, 0, 0, 0, 0, 0, 0, 0, 0, 0, 0, 0, 0
0, 0, 38, 1, 2, 7, 16, 30, 38, 53, 116, 94, 109, 138, 180, 182, 236, 228, 257, 241, 259, 268, 256, 235, 233, 231, 230, 225, 252, 172, 183, 197, 173, 196, 149, 145, 136, 116, 116, 109, 81, 73, 60, 56, 43, 19, 0, 0, 0, 0, 0, 0, 0, 0, 0, 0, 0, 0, 0, 0, 0, 0, 0, 0, 0, 0, 0, 0, 0, 0, 0, 0, 0, 0, 0, 0, 0, 0, 0, 0, 0, 0, 0, 0, 0, 0, 0, 0, 0, 0, 0, 0, 0, 0, 0, 0, 0, 0, 0, 0, 0, 0, 0, 0, 0, 0
0, 0, 39, 3, 1, 5, 20, 26, 30, 51, 112, 96, 135, 143, 182, 204, 204, 217, 246, 223, 234, 236, 253, 234, 276, 251, 246, 239, 232, 175, 200, 194, 172, 172, 182, 171, 156, 115, 128, 121, 86, 73, 75, 57, 59, 24, 4, 0, 0, 0, 0, 0, 0, 0, 0, 0, 0, 0, 0, 0, 0, 0, 0, 0, 0, 0, 0, 0, 0, 0, 0, 0, 0, 0, 0, 0, 0, 0, 0, 0, 0, 0, 0, 0, 0, 0, 0, 0, 0, 0, 0, 0, 0, 0, 0, 0, 0, 0, 0, 0, 0, 0, 0, 0, 0, 0
0, 0, 40, 3, 3, 8, 5, 24, 49, 57, 100, 99, 114, 137, 157, 209, 218, 233, 230, 265, 248, 267, 223, 234, 226, 238, 252, 246, 225, 206, 175, 178, 159, 173, 147, 145, 138, 128, 111, 100, 90, 85, 65, 47, 51, 30, 0, 0, 0, 0, 0, 0, 0, 0, 0, 0, 0, 0, 0, 0, 0, 0, 0, 0, 0, 0, 0, 0, 0, 0, 0, 0, 0, 0, 0, 0, 0, 0, 0, 0, 0, 0, 0, 0, 0, 0, 0, 0, 0, 0, 0, 0, 0, 0, 0, 0, 0, 0, 0, 0, 0, 0, 0, 0, 0, 0
0, 0, 41, 0, 4, 5, 27, 22, 33, 61, 112, 93, 123, 126, 151, 190, 199, 178, 201, 237, 234, 240, 204, 219, 230, 245, 214, 191, 231, 229, 171, 215, 187, 152, 150, 137, 122, 122, 125, 72, 94, 68, 73, 44, 48, 19, 1, 0, 0, 0, 0, 0, 0, 0, 0, 0, 0, 0, 0, 0, 0, 0, 0, 0, 0, 0, 0, 0, 0, 0, 0, 0, 0, 0, 0, 0, 0, 0, 0, 0, 0, 0, 0, 0, 0, 0, 0, 0, 0, 0, 0, 0, 0, 0, 0, 0, 0, 0, 0, 0, 0, 0, 0, 0, 0, 0
0, 0, 42, 2, 3, 5, 5, 14, 24, 38, 79, 77, 89, 109, 133, 147, 165, 173, 189, 169, 191, 200, 203, 199, 187, 190, 195, 180, 176, 175, 142, 149, 152, 131, 139, 120, 131, 114, 93, 89, 74, 64, 67, 44, 39, 19, 2, 0, 0, 0, 0, 0, 0, 0, 0, 0, 0, 0, 0, 0, 0, 0, 0, 0, 0, 0, 0, 0, 0, 0, 0, 0, 0, 0, 0, 0, 0, 0, 0, 0, 0, 0, 0, 0, 0, 0, 0, 0, 0, 0, 0, 0, 0, 0, 0, 0, 0, 0, 0, 0, 0, 0, 0, 0, 0, 0
0, 0, 43, 4, 4, 3, 10, 10, 27, 22, 59, 63, 62, 82, 98, 110, 132, 136, 126, 161, 171, 176, 188, 185, 162, 170, 181, 168, 159, 129, 143, 149, 124, 125, 113, 98, 96, 82, 72, 73, 64, 57, 54, 36, 19, 15, 3, 0, 0, 0, 0, 0, 0, 0, 0, 0, 0, 0, 0, 0, 0, 0, 0, 0, 0, 0, 0, 0, 0, 0, 0, 0, 0, 0, 0, 0, 0, 0, 0, 0, 0, 0, 0, 0, 0, 0, 0, 0, 0, 0, 0, 0, 0, 0, 0, 0, 0, 0, 0, 0, 0, 0, 0, 0, 0, 0
0, 0, 44, 0, 0, 1, 5, 14, 14, 19, 64, 53, 45, 63, 101, 112, 115, 108, 131, 115, 136, 122, 151, 143, 153, 137, 127, 136, 120, 124, 125, 116, 100, 95, 88, 100, 77, 75, 86, 47, 50, 53, 40, 37, 20, 10, 1, 0, 0, 0, 0, 0, 0, 0, 0, 0, 0, 0, 0, 0, 0, 0, 0, 0, 0, 0, 0, 0, 0, 0, 0, 0, 0, 0, 0, 0, 0, 0, 0, 0, 0, 0, 0, 0, 0, 0, 0, 0, 0, 0, 0, 0, 0, 0, 0, 0, 0, 0, 0, 0, 0, 0, 0, 0, 0, 0
0, 0, 45, 1, 1, 1, 5, 5, 18, 18, 42, 34, 44, 56, 84, 89, 58, 93, 81, 102, 120, 124, 119, 121, 139, 121, 124, 102, 132, 136, 81, 110, 100, 105, 94, 81, 68, 81, 55, 67, 50, 45, 31, 42, 30, 11, 1, 0, 0, 0, 0, 0, 0, 0, 0, 0, 0, 0, 0, 0, 0, 0, 0, 0, 0, 0, 0, 0, 0, 0, 0, 0, 0, 0, 0, 0, 0, 0, 0, 0, 0, 0, 0, 0, 0, 0, 0, 0, 0, 0, 0, 0, 0, 0, 0, 0, 0, 0, 0, 0, 0, 0, 0, 0, 0, 0
0, 0, 46, 3, 1, 4, 1, 1, 6, 9, 40, 22, 28, 34, 63, 61, 75, 71, 74, 77, 90, 124, 116, 92, 103, 110, 114, 88, 109, 99, 93, 97, 91, 90, 97, 68, 62, 65, 47, 49, 56, 30, 35, 27, 25, 7, 1, 0, 0, 0, 0, 0, 0, 0, 0, 0, 0, 0, 0, 0, 0, 0, 0, 0, 0, 0, 0, 0, 0, 0, 0, 0, 0, 0, 0, 0, 0, 0, 0, 0, 0, 0, 0, 0, 0, 0, 0, 0, 0, 0, 0, 0, 0, 0, 0, 0, 0, 0, 0, 0, 0, 0, 0, 0, 0, 0
0, 0, 47, 5, 1, 0, 2, 2, 8, 11, 28, 21, 29, 39, 39, 55, 58, 72, 81, 93, 93, 92, 73, 88, 83, 89, 61, 115, 93, 94, 79, 75, 86, 69, 82, 86, 63, 57, 55, 45, 49, 38, 33, 21, 16, 4, 1, 0, 0, 0, 0, 0, 0, 0, 0, 0, 0, 0, 0, 0, 0, 0, 0, 0, 0, 0, 0, 0, 0, 0, 0, 0, 0, 0, 0, 0, 0, 0, 0, 0, 0, 0, 0, 0, 0, 0, 0, 0, 0, 0, 0, 0, 0, 0, 0, 0, 0, 0, 0, 0, 0, 0, 0, 0, 0, 0
0, 0, 48, 3, 0, 0, 0, 3, 0, 6, 26, 11, 17, 30, 43, 37, 53, 60, 62, 66, 78, 75, 106, 89, 102, 85, 89, 91, 75, 70, 87, 85, 82, 59, 68, 62, 49, 61, 37, 33, 37, 37, 33, 28, 17, 11, 2, 0, 0, 0, 0, 0, 0, 0, 0, 0, 0, 0, 0, 0, 0, 0, 0, 0, 0, 0, 0, 0, 0, 0, 0, 0, 0, 0, 0, 0, 0, 0, 0, 0, 0, 0, 0, 0, 0, 0, 0, 0, 0, 0, 0, 0, 0, 0, 0, 0, 0, 0, 0, 0, 0, 0, 0, 0, 0, 0
0, 0, 49, 0, 0, 0, 0, 1, 4, 3, 18, 10, 17, 31, 30, 50, 55, 54, 64, 67, 70, 76, 93, 85, 76, 80, 95, 94, 65, 74, 89, 81, 57, 58, 68, 69, 65, 59, 36, 38, 31, 31, 32, 25, 26, 4, 0, 0, 0, 0, 0, 0, 0, 0, 0, 0, 0, 0, 0, 0, 0, 0, 0, 0, 0, 0, 0, 0, 0, 0, 0, 0, 0, 0, 0, 0, 0, 0, 0, 0, 0, 0, 0, 0, 0, 0, 0, 0, 0, 0, 0, 0, 0, 0, 0, 0, 0, 0, 0, 0, 0, 0, 0, 0, 0, 0
0, 0, 50, 0, 0, 0, 3, 2, 3, 6, 17, 8, 21, 23, 43, 36, 42, 41, 49, 69, 65, 72, 93, 65, 74, 93, 80, 72, 86, 79, 56, 55, 77, 85, 70, 73, 61, 55, 55, 50, 42, 36, 29, 16, 17, 12, 1, 0, 0, 0, 0, 0, 0, 0, 0, 0, 0, 0, 0, 0, 0, 0, 0, 0, 0, 0, 0, 0, 0, 0, 0, 0, 0, 0, 0, 0, 0, 0, 0, 0, 0, 0, 0, 0, 0, 0, 0, 0, 0, 0, 0, 0, 0, 0, 0, 0, 0, 0, 0, 0, 0, 0, 0, 0, 0, 0
0, 0, 51, 1, 0, 0, 0, 2, 2, 5, 30, 13, 17, 28, 22, 45, 43, 66, 79, 69, 83, 73, 68, 79, 79, 90, 93, 92, 89, 90, 89, 72, 91, 69, 80, 56, 58, 47, 58, 44, 36, 42, 30, 17, 22, 11, 1, 0, 0, 0, 0, 0, 0, 0, 0, 0, 0, 0, 0, 0, 0, 0, 0, 0, 0, 0, 0, 0, 0, 0, 0, 0, 0, 0, 0, 0, 0, 0, 0, 0, 0, 0, 0, 0, 0, 0, 0, 0, 0, 0, 0, 0, 0, 0, 0, 0, 0, 0, 0, 0, 0, 0, 0, 0, 0, 0
0, 0, 52, 2, 0, 0, 1, 3, 6, 6, 23, 13, 34, 29, 34, 49, 55, 59, 57, 67, 74, 97, 76, 102, 100, 110, 81, 95, 80, 103, 102, 93, 73, 73, 80, 60, 51, 69, 49, 47, 40, 31, 41, 23, 15, 4, 0, 0, 0, 0, 0, 0, 0, 0, 0, 0, 0, 0, 0, 0, 0, 0, 0, 0, 0, 0, 0, 0, 0, 0, 0, 0, 0, 0, 0, 0, 0, 0, 0, 0, 0, 0, 0, 0, 0, 0, 0, 0, 0, 0, 0, 0, 0, 0, 0, 0, 0, 0, 0, 0, 0, 0, 0, 0, 0, 0
0, 0, 53, 0, 0, 2, 2, 5, 4, 15, 32, 23, 33, 37, 55, 70, 92, 78, 72, 93, 118, 95, 106, 116, 99, 104, 125, 100, 84, 103, 114, 75, 110, 76, 68, 65, 74, 63, 57, 49, 49, 38, 34, 30, 19, 13, 1, 0, 0, 0, 0, 0, 0, 0, 0, 0, 0, 0, 0, 0, 0, 0, 0, 0, 0, 0, 0, 0, 0, 0, 0, 0, 0, 0, 0, 0, 0, 0, 0, 0, 0, 0, 0, 0, 0, 0, 0, 0, 0, 0, 0, 0, 0, 0, 0, 0, 0, 0, 0, 0, 0, 0, 0, 0, 0, 0
0, 0, 54, 0, 2, 1, 3, 2, 12, 15, 54, 34, 37, 48, 50, 79, 101, 81, 74, 102, 112, 115, 117, 155, 149, 145, 116, 125, 127, 121, 91, 106, 102, 107, 118, 95, 72, 81, 66, 59, 68, 51, 43, 36, 27, 9, 1, 0, 0, 0, 0, 0, 0, 0, 0, 0, 0, 0, 0, 0, 0, 0, 0, 0, 0, 0, 0, 0, 0, 0, 0, 0, 0, 0, 0, 0, 0, 0, 0, 0, 0, 0, 0, 0, 0, 0, 0, 0, 0, 0, 0, 0, 0, 0, 0, 0, 0, 0, 0, 0, 0, 0, 0, 0, 0, 0
0, 0, 55, 0, 2, 3, 6, 13, 22, 40, 51, 39, 49, 71, 85, 87, 110, 98, 140, 128, 131, 145, 150, 145, 151, 149, 139, 129, 123, 132, 138, 107, 112, 93, 102, 102, 90, 89, 78, 79, 58, 54, 38, 42, 26, 18, 0, 0, 0, 0, 0, 0, 0, 0, 0, 0, 0, 0, 0, 0, 0, 0, 0, 0, 0, 0, 0, 0, 0, 0, 0, 0, 0, 0, 0, 0, 0, 0, 0, 0, 0, 0, 0, 0, 0, 0, 0, 0, 0, 0, 0, 0, 0, 0, 0, 0, 0, 0, 0, 0, 0, 0, 0, 0, 0, 0
0, 0, 56, 1, 4, 1, 7, 15, 17, 39, 67, 51, 71, 76, 112, 108, 125, 158, 153, 171, 171, 172, 165, 183, 186, 157, 172, 182, 169, 139, 131, 129, 146, 120, 111, 113, 86, 82, 76, 77, 75, 55, 51, 38, 31, 21, 0, 0, 0, 0, 0, 0, 0, 0, 0, 0, 0, 0, 0, 0, 0, 0, 0, 0, 0, 0, 0, 0, 0, 0, 0, 0, 0, 0, 0, 0, 0, 0, 0, 0, 0, 0, 0, 0, 0, 0, 0, 0, 0, 0, 0, 0, 0, 0, 0, 0, 0, 0, 0, 0, 0, 0, 0, 0, 0, 0
0, 0, 57, 4, 1, 6, 9, 22, 23, 41, 88, 77, 82, 119, 146, 145, 174, 183, 184, 197, 152, 193, 214, 198, 217, 209, 215, 166, 196, 211, 168, 143, 130, 142, 134, 107, 114, 98, 111, 71, 85, 71, 53, 47, 42, 10, 0, 0, 0, 0, 0, 0, 0, 0, 0, 0, 0, 0, 0, 0, 0, 0, 0, 0, 0, 0, 0, 0, 0, 0, 0, 0, 0, 0, 0, 0, 0, 0, 0, 0, 0, 0, 0, 0, 0, 0, 0, 0, 0, 0, 0, 0, 0, 0, 0, 0, 0, 0, 0, 0, 0, 0, 0, 0, 0, 0
0, 0, 58, 3, 4, 9, 13, 27, 31, 60, 115, 82, 132, 135, 141, 179, 202, 212, 220, 213, 270, 223, 225, 253, 239, 220, 202, 205, 209, 206, 210, 168, 183, 190, 149, 127, 152, 104, 128, 81, 56, 81, 69, 60, 33, 30, 2, 0, 0, 0, 0, 0, 0, 0, 0, 0, 0, 0, 0, 0, 0, 0, 0, 0, 0, 0, 0, 0, 0, 0, 0, 0, 0, 0, 0, 0, 0, 0, 0, 0, 0, 0, 0, 0, 0, 0, 0, 0, 0, 0, 0, 0, 0, 0, 0, 0, 0, 0, 0, 0, 0, 0, 0, 0, 0, 0
0, 0, 59, 1, 2, 9, 14, 23, 43, 59, 120, 105, 117, 152, 178, 192, 195, 216, 230, 232, 285, 238, 223, 240, 255, 223, 217, 244, 208, 202, 203, 177, 207, 145, 161, 134, 175, 132, 115, 89, 93, 72, 65, 55, 46, 29, 1, 0, 0, 0, 0, 0, 0, 0, 0, 0, 0, 0, 0, 0, 0, 0, 0, 0, 0, 0, 0, 0, 0, 0, 0, 0, 0, 0, 0, 0, 0, 0, 0, 0, 0, 0, 0, 0, 0, 0, 0, 0, 0, 0, 0, 0, 0, 0, 0, 0, 0, 0, 0, 0, 0, 0, 0, 0, 0, 0
0, 0, 60, 2, 4, 10, 7, 32, 45, 67, 126, 104, 123, 154, 199, 182, 197, 184, 243, 236, 251, 264, 234, 256, 234, 240, 239, 213, 248, 206, 192, 149, 173, 162, 160, 143, 139, 107, 87, 110, 97, 73, 72, 59, 40, 23, 0, 0, 0, 0, 0, 0, 0, 0, 0, 0, 0, 0, 0, 0, 0, 0, 0, 0, 0, 0, 0, 0, 0, 0, 0, 0, 0, 0, 0, 0, 0, 0, 0, 0, 0, 0, 0, 0, 0, 0, 0, 0, 0, 0, 0, 0, 0, 0, 0, 0, 0, 0, 0, 0, 0, 0, 0, 0, 0, 0
0, 0, 61, 5, 6, 5, 15, 29, 23, 52, 120, 87, 110, 136, 160, 173, 206, 217, 225, 231, 223, 280, 263, 264, 230, 227, 211, 211, 217, 221, 213, 175, 173, 150, 167, 173, 133, 136, 116, 102, 101, 83, 75, 59, 37, 24, 0, 0, 0, 0, 0, 0, 0, 0, 0, 0, 0, 0, 0, 0, 0, 0, 0, 0, 0, 0, 0, 0, 0, 0, 0, 0, 0, 0, 0, 0, 0, 0, 0, 0, 0, 0, 0, 0, 0, 0, 0, 0, 0, 0, 0, 0, 0, 0, 0, 0, 0, 0, 0, 0, 0, 0, 0, 0, 0, 0
0, 0, 62, 2, 4, 11, 15, 24, 27, 64, 121, 108, 114, 130, 191, 203, 221, 193, 217, 242, 257, 235, 228, 233, 245, 213, 258, 255, 245, 195, 190, 197, 179, 173, 170, 155, 156, 149, 107, 76, 83, 69, 73, 45, 42, 22, 0, 0, 0, 0, 0, 0, 0, 0, 0, 0, 0, 0, 0, 0, 0, 0, 0, 0, 0, 0, 0, 0, 0, 0, 0, 0, 0, 0, 0, 0, 0, 0, 0, 0, 0, 0, 0, 0, 0, 0, 0, 0, 0, 0, 0, 0, 0, 0, 0, 0, 0, 0, 0, 0, 0, 0, 0, 0, 0, 0
0, 0, 63, 1, 4, 4, 17, 16, 43, 47, 126, 92, 118, 154, 170, 227, 215, 230, 233, 218, 248, 227, 264, 235, 253, 236, 230, 216, 222, 194, 209, 172, 189, 169, 181, 126, 143, 110, 103, 98, 97, 71, 78, 59, 52, 28, 1, 0, 0, 0, 0, 0, 0, 0, 0, 0, 0, 0, 0, 0, 0, 0, 0, 0, 0, 0, 0, 0, 0, 0, 0, 0, 0, 0, 0, 0, 0, 0, 0, 0, 0, 0, 0, 0, 0, 0, 0, 0, 0, 0, 0, 0, 0, 0, 0, 0, 0, 0, 0, 0, 0, 0, 0, 0, 0, 0
0, 0, 64, 2, 7, 4, 16, 22, 42, 54, 104, 87, 118, 156, 174, 210, 192, 185, 213, 236, 268, 259, 251, 265, 227, 222, 219, 249, 209, 201, 241, 202, 185, 155, 182, 142, 162, 127, 117, 96, 76, 78, 68, 60, 41, 18, 2, 0, 0, 0, 0, 0, 0, 0, 0, 0, 0, 0, 0, 0, 0, 0, 0, 0, 0, 0, 0, 0, 0, 0, 0, 0, 0, 0, 0, 0, 0, 0, 0, 0, 0, 0, 0, 0, 0, 0, 0, 0, 0, 0, 0, 0, 0, 0, 0, 0, 0, 0, 0, 0, 0, 0, 0, 0, 0, 0
0, 0, 65, 12, 3, 10, 12, 29, 39, 61, 107, 108, 110, 151, 194, 212, 211, 227, 226, 287, 245, 253, 246, 250, 226, 228, 231, 223, 231, 213, 214, 204, 189, 183, 169, 153, 122, 146, 143, 97, 94, 85, 55, 58, 25, 26, 3, 0, 0, 0, 0, 0, 0, 0, 0, 0, 0, 0, 0, 0, 0, 0, 0, 0, 0, 0, 0, 0, 0, 0, 0, 0, 0, 0, 0, 0, 0, 0, 0, 0, 0, 0, 0, 0, 0, 0, 0, 0, 0, 0, 0, 0, 0, 0, 0, 0, 0, 0, 0, 0, 0, 0, 0, 0, 0, 0
0, 0, 66, 1, 5, 5, 15, 26, 49, 62, 126, 99, 118, 135, 181, 203, 205, 217, 227, 226, 265, 240, 222, 272, 225, 262, 234, 229, 229, 197, 162, 181, 184, 165, 170, 145, 117, 106, 122, 74, 93, 98, 64, 53, 37, 21, 1, 0, 0, 0, 0, 0, 0, 0, 0, 0, 0, 0, 0, 0, 0, 0, 0, 0, 0, 0, 0, 0, 0, 0, 0, 0, 0, 0, 0, 0, 0, 0, 0, 0, 0, 0, 0, 0, 0, 0, 0, 0, 0, 0, 0, 0, 0, 0, 0, 0, 0, 0, 0, 0, 0, 0, 0, 0, 0, 0
0, 0, 67, 4, 4, 9, 13, 25, 40, 51, 114, 88, 103, 132, 196, 226, 205, 200, 211, 242, 232, 283, 247, 262, 241, 251, 210, 217, 227, 217, 216, 173, 190, 164, 190, 127, 127, 131, 126, 91, 84, 81, 57, 61, 34, 30, 3, 0, 0, 0, 0, 0, 0, 0, 0, 0, 0, 0, 0, 0, 0, 0, 0, 0, 0, 0, 0, 0, 0, 0, 0, 0, 0, 0, 0, 0, 0, 0, 0, 0, 0, 0, 0, 0, 0, 0, 0, 0, 0, 0, 0, 0, 0, 0, 0, 0, 0, 0, 0, 0, 0, 0, 0, 0, 0, 0
0, 0, 68, 0, 4, 6, 16, 24, 39, 57, 101, 95, 106, 128, 162, 200, 167, 227, 219, 236, 260, 208, 250, 281, 263, 266, 250, 232, 223, 212, 192, 202, 175, 169, 180, 144, 152, 121, 128, 91, 91, 72, 67, 60, 32, 17, 0, 0, 0, 0, 0, 0, 0, 0, 0, 0, 0, 0, 0, 0, 0, 0, 0, 0, 0, 0, 0, 0, 0, 0, 0, 0, 0, 0, 0, 0, 0, 0, 0, 0, 0, 0, 0, 0, 0, 0, 0, 0, 0, 0, 0, 0, 0, 0, 0, 0, 0, 0, 0, 0, 0, 0, 0, 0, 0, 0
0, 0, 69, 0, 9, 11, 10, 28, 37, 62, 125, 81, 119, 147, 176, 198, 190, 203, 272, 235, 224, 236, 255, 247, 238, 246, 219, 237, 221, 219, 193, 214, 174, 161, 146, 147, 144, 118, 128, 96, 109, 91, 60, 54, 40, 22, 1, 0, 0, 0, 0, 0, 0, 0, 0, 0, 0, 0, 0, 0, 0, 0, 0, 0, 0, 0, 0, 0, 0, 0, 0, 0, 0, 0, 0, 0, 0, 0, 0, 0, 0, 0, 0, 0, 0, 0, 0, 0, 0, 0, 0, 0, 0, 0, 0, 0, 0, 0, 0, 0, 0, 0, 0, 0, 0, 0
0, 0, 70, 2, 2, 10, 16, 38, 39, 58, 101, 103, 111, 138, 180, 166, 236, 207, 213, 255, 256, 260, 250, 267, 233, 226, 227, 233, 241, 220, 191, 181, 168, 174, 155, 172, 139, 119, 96, 112, 86, 77, 70, 50, 32, 19, 0, 0, 0, 0, 0, 0, 0, 0, 0, 0, 0, 0, 0, 0, 0, 0, 0, 0, 0, 0, 0, 0, 0, 0, 0, 0, 0, 0, 0, 0, 0, 0, 0, 0, 0, 0, 0, 0, 0, 0, 0, 0, 0, 0, 0, 0, 0, 0, 0, 0, 0, 0, 0, 0, 0, 0, 0, 0, 0, 0
0, 0, 71, 4, 5, 5, 19, 21, 48, 53, 112, 72, 101, 149, 176, 185, 202, 210, 245, 249, 248, 256, 245, 245, 270, 249, 230, 234, 229, 204, 177, 173, 167, 179, 147, 150, 142, 131, 133, 95, 82, 78, 60, 53, 41, 21, 0, 0, 0, 0, 0, 0, 0, 0, 0, 0, 0, 0, 0, 0, 0, 0, 0, 0, 0, 0, 0, 0, 0, 0, 0, 0, 0, 0, 0, 0, 0, 0, 0, 0, 0, 0, 0, 0, 0, 0, 0, 0, 0, 0, 0, 0, 0, 0, 0, 0, 0, 0, 0, 0, 0, 0, 0, 0, 0, 0
0, 0, 72, 0, 2, 8, 20, 28, 41, 57, 124, 89, 110, 151, 174, 196, 198, 210, 255, 253, 231, 253, 275, 229, 237, 245, 204, 248, 216, 195, 204, 176, 184, 171, 163, 132, 144, 117, 111, 113, 85, 67, 72, 59, 50, 23, 6, 0, 0, 0, 0, 0, 0, 0, 0, 0, 0, 0, 0, 0, 0, 0, 0, 0, 0, 0, 0, 0, 0, 0, 0, 0, 0, 0, 0, 0, 0, 0, 0, 0, 0, 0, 0, 0, 0, 0, 0, 0, 0, 0, 0, 0, 0, 0, 0, 0, 0, 0, 0, 0, 0, 0, 0, 0, 0, 0
0, 0, 73, 4, 2, 5, 17, 34, 51, 63, 125, 88, 121, 142, 189, 169, 231, 220, 222, 232, 229, 265, 226, 245, 267, 224, 242, 244, 226, 220, 186, 166, 189, 195, 169, 150, 137, 123, 107, 115, 100, 83, 90, 53, 52, 28, 0, 0, 0, 0, 0, 0, 0, 0, 0, 0, 0, 0, 0, 0, 0, 0, 0, 0, 0, 0, 0, 0, 0, 0, 0, 0, 0, 0, 0, 0, 0, 0, 0, 0, 0, 0, 0, 0, 0, 0, 0, 0, 0, 0, 0, 0, 0, 0, 0, 0, 0, 0, 0, 0, 0, 0, 0, 0, 0, 0
0, 0, 74, 3, 6, 6, 17, 24, 47, 57, 118, 84, 113, 126, 173, 195, 207, 227, 232, 272, 248, 258, 242, 243, 248, 233, 215, 239, 212, 210, 190, 186, 161, 165, 172, 151, 128, 128, 118, 95, 96, 62, 61, 59, 31, 20, 2, 0, 0, 0, 0, 0, 0, 0, 0, 0, 0, 0, 0, 0, 0, 0, 0, 0, 0, 0, 0, 0, 0, 0, 0, 0, 0, 0, 0, 0, 0, 0, 0, 0, 0, 0, 0, 0, 0, 0, 0, 0, 0, 0, 0, 0, 0, 0, 0, 0, 0, 0, 0, 0, 0, 0, 0, 0, 0, 0
0, 0, 75, 0, 2, 7, 13, 17, 43, 50, 112, 99, 115, 131, 187, 210, 172, 209, 197, 235, 265, 272, 254, 276, 242, 228, 231, 229, 233, 211, 180, 178, 167, 181, 165, 151, 154, 115, 115, 121, 86, 90, 60, 61, 41, 20, 4, 0, 0, 0, 0, 0, 0, 0, 0, 0, 0, 0, 0, 0, 0, 0, 0, 0, 0, 0, 0, 0, 0, 0, 0, 0, 0, 0, 0, 0, 0, 0, 0, 0, 0, 0, 0, 0, 0, 0, 0, 0, 0, 0, 0, 0, 0, 0, 0, 0, 0, 0, 0, 0, 0, 0, 0, 0, 0, 0
0, 0, 76, 4, 6, 8, 19, 25, 30, 46, 110, 111, 118, 138, 186, 196, 196, 237, 246, 275, 243, 242, 235, 243, 255, 230, 228, 186, 206, 253, 205, 176, 188, 173, 197, 157, 139, 140, 125, 103, 96, 87, 55, 60, 44, 18, 0, 0, 0, 0, 0, 0, 0, 0, 0, 0, 0, 0, 0, 0, 0, 0, 0, 0, 0, 0, 0, 0, 0, 0, 0, 0, 0, 0, 0, 0, 0, 0, 0, 0, 0, 0, 0, 0, 0, 0, 0, 0, 0, 0, 0, 0, 0, 0, 0, 0, 0, 0, 0, 0, 0, 0, 0, 0, 0, 0
0, 0, 77, 5, 1, 11, 6, 26, 34, 57, 88, 77, 109, 151, 187, 188, 204, 212, 224, 224, 210, 269, 287, 265, 291, 231, 270, 222, 205, 214, 183, 192, 162, 158, 152, 151, 132, 101, 126, 97, 78, 76, 70, 51, 24, 21, 2, 0, 0, 0, 0, 0, 0, 0, 0, 0, 0, 0, 0, 0, 0, 0, 0, 0, 0, 0, 0, 0, 0, 0, 0, 0, 0, 0, 0, 0, 0, 0, 0, 0, 0, 0, 0, 0, 0, 0, 0, 0, 0, 0, 0, 0, 0, 0, 0, 0, 0, 0, 0, 0, 0, 0, 0, 0, 0, 0
