# TOPAS Version: 3.1.p3
# Parameter File: REDLEN_small_phantom_mc_basic_2cm.txt
# Results for scorer PhantomDose
# Scored on surface: CdTeCrystal1/YPlusSurface
# X in 100 bins of 0.03332 cm
# Y in 1 bin  of 0.4 cm
# Z in 100 bins of 0.0375 cm
# SurfaceTrackCount : Sum   
# Binned by incident track energy in 100 bins of 0.00104 MeV from 0.016 MeV to 0.12 MeV
# First bin is underflow, next to last bin is overflow, last bin is for case of no incident track.
0, 0, 0, 0, 0, 0, 0, 0, 0, 0, 1, 1, 2, 0, 1, 2, 1, 1, 2, 2, 9, 4, 2, 5, 4, 4, 5, 0, 1, 1, 2, 2, 2, 0, 2, 2, 2, 0, 1, 0, 0, 0, 1, 3, 0, 0, 0, 0, 0, 0, 0, 0, 0, 0, 0, 0, 0, 0, 0, 0, 0, 0, 0, 0, 0, 0, 0, 0, 0, 0, 0, 0, 0, 0, 0, 0, 0, 0, 0, 0, 0, 0, 0, 0, 0, 0, 0, 0, 0, 0, 0, 0, 0, 0, 0, 0, 0, 0, 0, 0, 0, 0, 0, 0, 0, 0
0, 0, 1, 3, 0, 0, 0, 0, 0, 1, 2, 0, 2, 0, 2, 1, 2, 1, 0, 2, 4, 6, 1, 4, 7, 2, 3, 0, 1, 4, 0, 1, 2, 0, 0, 4, 3, 1, 1, 1, 0, 2, 0, 0, 0, 0, 0, 0, 0, 0, 0, 0, 0, 0, 0, 0, 0, 0, 0, 0, 0, 0, 0, 0, 0, 0, 0, 0, 0, 0, 0, 0, 0, 0, 0, 0, 0, 0, 0, 0, 0, 0, 0, 0, 0, 0, 0, 0, 0, 0, 0, 0, 0, 0, 0, 0, 0, 0, 0, 0, 0, 0, 0, 0, 0, 0
0, 0, 2, 0, 0, 0, 0, 1, 0, 0, 0, 0, 2, 0, 3, 2, 3, 3, 3, 5, 2, 5, 3, 2, 5, 4, 4, 1, 0, 5, 0, 5, 2, 6, 1, 1, 1, 0, 0, 1, 1, 0, 1, 1, 0, 0, 0, 0, 0, 0, 0, 0, 0, 0, 0, 0, 0, 0, 0, 0, 0, 0, 0, 0, 0, 0, 0, 0, 0, 0, 0, 0, 0, 0, 0, 0, 0, 0, 0, 0, 0, 0, 0, 0, 0, 0, 0, 0, 0, 0, 0, 0, 0, 0, 0, 0, 0, 0, 0, 0, 0, 0, 0, 0, 0, 0
0, 0, 3, 0, 0, 2, 0, 0, 0, 1, 2, 0, 1, 1, 1, 1, 3, 0, 5, 1, 2, 2, 2, 5, 2, 3, 6, 2, 6, 2, 3, 8, 3, 2, 3, 0, 0, 1, 3, 1, 0, 2, 3, 2, 1, 0, 0, 0, 0, 0, 0, 0, 0, 0, 0, 0, 0, 0, 0, 0, 0, 0, 0, 0, 0, 0, 0, 0, 0, 0, 0, 0, 0, 0, 0, 0, 0, 0, 0, 0, 0, 0, 0, 0, 0, 0, 0, 0, 0, 0, 0, 0, 0, 0, 0, 0, 0, 0, 0, 0, 0, 0, 0, 0, 0, 0
0, 0, 4, 0, 0, 0, 0, 0, 1, 0, 0, 1, 2, 2, 2, 4, 1, 0, 1, 4, 2, 0, 2, 2, 2, 2, 3, 6, 2, 3, 1, 5, 4, 2, 1, 3, 0, 1, 2, 1, 1, 2, 0, 0, 0, 1, 0, 0, 0, 0, 0, 0, 0, 0, 0, 0, 0, 0, 0, 0, 0, 0, 0, 0, 0, 0, 0, 0, 0, 0, 0, 0, 0, 0, 0, 0, 0, 0, 0, 0, 0, 0, 0, 0, 0, 0, 0, 0, 0, 0, 0, 0, 0, 0, 0, 0, 0, 0, 0, 0, 0, 0, 0, 0, 0, 0
0, 0, 5, 0, 1, 2, 8, 12, 17, 19, 39, 34, 42, 54, 78, 74, 67, 94, 101, 96, 103, 114, 107, 128, 111, 92, 75, 95, 69, 90, 74, 83, 84, 80, 71, 55, 57, 54, 40, 47, 54, 27, 24, 27, 20, 10, 1, 0, 0, 0, 0, 0, 0, 0, 0, 0, 0, 0, 0, 0, 0, 0, 0, 0, 0, 0, 0, 0, 0, 0, 0, 0, 0, 0, 0, 0, 0, 0, 0, 0, 0, 0, 0, 0, 0, 0, 0, 0, 0, 0, 0, 0, 0, 0, 0, 0, 0, 0, 0, 0, 0, 0, 0, 0, 0, 0
0, 0, 6, 2, 2, 11, 10, 26, 48, 59, 127, 98, 114, 127, 183, 222, 197, 232, 237, 210, 237, 267, 229, 264, 242, 231, 248, 232, 227, 204, 224, 178, 186, 153, 148, 167, 133, 113, 122, 100, 93, 74, 54, 58, 57, 23, 0, 0, 0, 0, 0, 0, 0, 0, 0, 0, 0, 0, 0, 0, 0, 0, 0, 0, 0, 0, 0, 0, 0, 0, 0, 0, 0, 0, 0, 0, 0, 0, 0, 0, 0, 0, 0, 0, 0, 0, 0, 0, 0, 0, 0, 0, 0, 0, 0, 0, 0, 0, 0, 0, 0, 0, 0, 0, 0, 0
0, 0, 7, 2, 4, 11, 20, 19, 41, 59, 99, 100, 114, 141, 178, 164, 211, 214, 220, 258, 241, 266, 283, 236, 258, 257, 232, 238, 218, 193, 188, 207, 172, 192, 164, 153, 126, 139, 113, 105, 97, 85, 61, 53, 49, 22, 1, 0, 0, 0, 0, 0, 0, 0, 0, 0, 0, 0, 0, 0, 0, 0, 0, 0, 0, 0, 0, 0, 0, 0, 0, 0, 0, 0, 0, 0, 0, 0, 0, 0, 0, 0, 0, 0, 0, 0, 0, 0, 0, 0, 0, 0, 0, 0, 0, 0, 0, 0, 0, 0, 0, 0, 0, 0, 0, 0
0, 0, 8, 3, 7, 6, 16, 31, 46, 51, 114, 103, 114, 161, 184, 198, 181, 193, 226, 246, 238, 255, 249, 251, 233, 250, 240, 255, 221, 196, 181, 191, 196, 165, 162, 157, 154, 90, 110, 114, 84, 74, 77, 53, 36, 24, 1, 0, 0, 0, 0, 0, 0, 0, 0, 0, 0, 0, 0, 0, 0, 0, 0, 0, 0, 0, 0, 0, 0, 0, 0, 0, 0, 0, 0, 0, 0, 0, 0, 0, 0, 0, 0, 0, 0, 0, 0, 0, 0, 0, 0, 0, 0, 0, 0, 0, 0, 0, 0, 0, 0, 0, 0, 0, 0, 0
0, 0, 9, 7, 5, 15, 16, 37, 39, 58, 106, 95, 107, 129, 175, 196, 214, 165, 245, 213, 273, 249, 229, 215, 245, 253, 232, 207, 213, 202, 208, 205, 188, 170, 143, 145, 156, 128, 112, 98, 95, 82, 55, 47, 23, 22, 2, 0, 0, 0, 0, 0, 0, 0, 0, 0, 0, 0, 0, 0, 0, 0, 0, 0, 0, 0, 0, 0, 0, 0, 0, 0, 0, 0, 0, 0, 0, 0, 0, 0, 0, 0, 0, 0, 0, 0, 0, 0, 0, 0, 0, 0, 0, 0, 0, 0, 0, 0, 0, 0, 0, 0, 0, 0, 0, 0
0, 0, 10, 0, 2, 11, 12, 34, 41, 50, 113, 94, 114, 159, 181, 205, 204, 200, 206, 232, 248, 249, 264, 256, 250, 248, 233, 223, 219, 203, 191, 163, 165, 169, 153, 159, 121, 127, 108, 114, 78, 87, 59, 37, 38, 26, 1, 0, 0, 0, 0, 0, 0, 0, 0, 0, 0, 0, 0, 0, 0, 0, 0, 0, 0, 0, 0, 0, 0, 0, 0, 0, 0, 0, 0, 0, 0, 0, 0, 0, 0, 0, 0, 0, 0, 0, 0, 0, 0, 0, 0, 0, 0, 0, 0, 0, 0, 0, 0, 0, 0, 0, 0, 0, 0, 0
0, 0, 11, 3, 3, 10, 13, 35, 38, 58, 120, 86, 131, 147, 154, 187, 211, 229, 244, 239, 231, 247, 253, 247, 266, 204, 296, 225, 224, 212, 194, 202, 158, 183, 165, 142, 155, 121, 118, 95, 93, 74, 73, 47, 33, 28, 1, 0, 0, 0, 0, 0, 0, 0, 0, 0, 0, 0, 0, 0, 0, 0, 0, 0, 0, 0, 0, 0, 0, 0, 0, 0, 0, 0, 0, 0, 0, 0, 0, 0, 0, 0, 0, 0, 0, 0, 0, 0, 0, 0, 0, 0, 0, 0, 0, 0, 0, 0, 0, 0, 0, 0, 0, 0, 0, 0
0, 0, 12, 2, 1, 9, 11, 21, 44, 51, 130, 82, 120, 149, 186, 169, 200, 198, 213, 249, 253, 237, 265, 252, 260, 235, 260, 216, 244, 178, 213, 195, 164, 156, 153, 151, 169, 106, 117, 116, 80, 85, 69, 49, 41, 30, 2, 0, 0, 0, 0, 0, 0, 0, 0, 0, 0, 0, 0, 0, 0, 0, 0, 0, 0, 0, 0, 0, 0, 0, 0, 0, 0, 0, 0, 0, 0, 0, 0, 0, 0, 0, 0, 0, 0, 0, 0, 0, 0, 0, 0, 0, 0, 0, 0, 0, 0, 0, 0, 0, 0, 0, 0, 0, 0, 0
0, 0, 13, 2, 4, 6, 11, 29, 39, 61, 133, 99, 108, 150, 162, 213, 207, 212, 219, 251, 262, 266, 260, 270, 220, 244, 226, 212, 215, 172, 222, 198, 186, 150, 163, 135, 114, 142, 95, 114, 85, 84, 61, 52, 34, 12, 0, 0, 0, 0, 0, 0, 0, 0, 0, 0, 0, 0, 0, 0, 0, 0, 0, 0, 0, 0, 0, 0, 0, 0, 0, 0, 0, 0, 0, 0, 0, 0, 0, 0, 0, 0, 0, 0, 0, 0, 0, 0, 0, 0, 0, 0, 0, 0, 0, 0, 0, 0, 0, 0, 0, 0, 0, 0, 0, 0
0, 0, 14, 0, 5, 5, 21, 21, 38, 55, 130, 96, 110, 143, 159, 177, 215, 195, 235, 195, 278, 288, 252, 244, 234, 261, 263, 251, 189, 213, 194, 202, 186, 185, 180, 150, 153, 125, 112, 94, 90, 82, 57, 47, 42, 15, 0, 0, 0, 0, 0, 0, 0, 0, 0, 0, 0, 0, 0, 0, 0, 0, 0, 0, 0, 0, 0, 0, 0, 0, 0, 0, 0, 0, 0, 0, 0, 0, 0, 0, 0, 0, 0, 0, 0, 0, 0, 0, 0, 0, 0, 0, 0, 0, 0, 0, 0, 0, 0, 0, 0, 0, 0, 0, 0, 0
0, 0, 15, 7, 5, 6, 16, 23, 40, 39, 126, 67, 105, 141, 196, 197, 197, 225, 213, 259, 258, 219, 287, 239, 217, 213, 199, 226, 250, 203, 207, 186, 197, 166, 163, 156, 138, 106, 115, 96, 102, 90, 70, 58, 35, 18, 1, 0, 0, 0, 0, 0, 0, 0, 0, 0, 0, 0, 0, 0, 0, 0, 0, 0, 0, 0, 0, 0, 0, 0, 0, 0, 0, 0, 0, 0, 0, 0, 0, 0, 0, 0, 0, 0, 0, 0, 0, 0, 0, 0, 0, 0, 0, 0, 0, 0, 0, 0, 0, 0, 0, 0, 0, 0, 0, 0
0, 0, 16, 1, 2, 7, 22, 19, 32, 57, 131, 80, 114, 155, 186, 205, 184, 207, 226, 218, 287, 273, 229, 250, 252, 234, 193, 236, 258, 189, 203, 165, 177, 179, 169, 142, 156, 123, 98, 89, 78, 86, 70, 66, 39, 19, 2, 0, 0, 0, 0, 0, 0, 0, 0, 0, 0, 0, 0, 0, 0, 0, 0, 0, 0, 0, 0, 0, 0, 0, 0, 0, 0, 0, 0, 0, 0, 0, 0, 0, 0, 0, 0, 0, 0, 0, 0, 0, 0, 0, 0, 0, 0, 0, 0, 0, 0, 0, 0, 0, 0, 0, 0, 0, 0, 0
0, 0, 17, 0, 4, 9, 10, 8, 37, 56, 101, 113, 119, 148, 194, 197, 185, 195, 202, 240, 222, 258, 233, 220, 273, 243, 248, 233, 221, 232, 193, 165, 167, 178, 141, 163, 157, 123, 116, 94, 88, 75, 67, 52, 42, 23, 0, 0, 0, 0, 0, 0, 0, 0, 0, 0, 0, 0, 0, 0, 0, 0, 0, 0, 0, 0, 0, 0, 0, 0, 0, 0, 0, 0, 0, 0, 0, 0, 0, 0, 0, 0, 0, 0, 0, 0, 0, 0, 0, 0, 0, 0, 0, 0, 0, 0, 0, 0, 0, 0, 0, 0, 0, 0, 0, 0
0, 0, 18, 3, 5, 10, 12, 34, 40, 58, 102, 100, 115, 165, 166, 199, 209, 223, 250, 256, 266, 247, 264, 256, 259, 213, 235, 244, 203, 212, 212, 201, 183, 161, 179, 156, 139, 129, 118, 104, 94, 79, 81, 59, 38, 19, 4, 0, 0, 0, 0, 0, 0, 0, 0, 0, 0, 0, 0, 0, 0, 0, 0, 0, 0, 0, 0, 0, 0, 0, 0, 0, 0, 0, 0, 0, 0, 0, 0, 0, 0, 0, 0, 0, 0, 0, 0, 0, 0, 0, 0, 0, 0, 0, 0, 0, 0, 0, 0, 0, 0, 0, 0, 0, 0, 0
0, 0, 19, 2, 4, 8, 8, 29, 39, 52, 144, 112, 116, 156, 192, 198, 180, 196, 235, 217, 250, 237, 254, 249, 231, 239, 256, 267, 219, 222, 201, 200, 184, 179, 201, 136, 154, 109, 103, 97, 101, 96, 60, 54, 34, 22, 0, 0, 0, 0, 0, 0, 0, 0, 0, 0, 0, 0, 0, 0, 0, 0, 0, 0, 0, 0, 0, 0, 0, 0, 0, 0, 0, 0, 0, 0, 0, 0, 0, 0, 0, 0, 0, 0, 0, 0, 0, 0, 0, 0, 0, 0, 0, 0, 0, 0, 0, 0, 0, 0, 0, 0, 0, 0, 0, 0
0, 0, 20, 5, 2, 11, 21, 36, 56, 54, 115, 102, 107, 153, 162, 178, 198, 211, 248, 237, 239, 231, 225, 240, 235, 290, 216, 220, 197, 230, 198, 206, 148, 158, 170, 136, 132, 149, 123, 89, 62, 81, 75, 56, 44, 19, 3, 0, 0, 0, 0, 0, 0, 0, 0, 0, 0, 0, 0, 0, 0, 0, 0, 0, 0, 0, 0, 0, 0, 0, 0, 0, 0, 0, 0, 0, 0, 0, 0, 0, 0, 0, 0, 0, 0, 0, 0, 0, 0, 0, 0, 0, 0, 0, 0, 0, 0, 0, 0, 0, 0, 0, 0, 0, 0, 0
0, 0, 21, 4, 4, 7, 12, 25, 40, 56, 104, 83, 99, 136, 169, 196, 213, 204, 209, 232, 261, 258, 267, 259, 245, 208, 231, 236, 227, 191, 165, 193, 165, 170, 181, 176, 121, 126, 114, 104, 71, 77, 70, 52, 34, 28, 3, 0, 0, 0, 0, 0, 0, 0, 0, 0, 0, 0, 0, 0, 0, 0, 0, 0, 0, 0, 0, 0, 0, 0, 0, 0, 0, 0, 0, 0, 0, 0, 0, 0, 0, 0, 0, 0, 0, 0, 0, 0, 0, 0, 0, 0, 0, 0, 0, 0, 0, 0, 0, 0, 0, 0, 0, 0, 0, 0
0, 0, 22, 4, 0, 7, 10, 29, 55, 45, 117, 92, 103, 153, 163, 192, 186, 208, 233, 229, 235, 213, 265, 256, 278, 243, 267, 231, 206, 213, 198, 189, 168, 175, 142, 132, 140, 117, 107, 125, 108, 80, 69, 64, 39, 19, 3, 0, 0, 0, 0, 0, 0, 0, 0, 0, 0, 0, 0, 0, 0, 0, 0, 0, 0, 0, 0, 0, 0, 0, 0, 0, 0, 0, 0, 0, 0, 0, 0, 0, 0, 0, 0, 0, 0, 0, 0, 0, 0, 0, 0, 0, 0, 0, 0, 0, 0, 0, 0, 0, 0, 0, 0, 0, 0, 0
0, 0, 23, 3, 5, 10, 12, 26, 45, 57, 134, 92, 103, 131, 177, 188, 205, 204, 238, 241, 237, 293, 243, 235, 228, 257, 223, 244, 216, 238, 210, 174, 168, 160, 169, 153, 136, 153, 118, 103, 95, 66, 80, 62, 31, 24, 0, 0, 0, 0, 0, 0, 0, 0, 0, 0, 0, 0, 0, 0, 0, 0, 0, 0, 0, 0, 0, 0, 0, 0, 0, 0, 0, 0, 0, 0, 0, 0, 0, 0, 0, 0, 0, 0, 0, 0, 0, 0, 0, 0, 0, 0, 0, 0, 0, 0, 0, 0, 0, 0, 0, 0, 0, 0, 0, 0
0, 0, 24, 6, 2, 9, 11, 27, 31, 52, 122, 95, 112, 137, 157, 193, 202, 207, 217, 194, 249, 262, 227, 224, 233, 216, 246, 212, 205, 195, 217, 215, 173, 162, 144, 166, 134, 121, 103, 93, 79, 74, 68, 79, 36, 22, 0, 0, 0, 0, 0, 0, 0, 0, 0, 0, 0, 0, 0, 0, 0, 0, 0, 0, 0, 0, 0, 0, 0, 0, 0, 0, 0, 0, 0, 0, 0, 0, 0, 0, 0, 0, 0, 0, 0, 0, 0, 0, 0, 0, 0, 0, 0, 0, 0, 0, 0, 0, 0, 0, 0, 0, 0, 0, 0, 0
0, 0, 25, 3, 3, 10, 24, 24, 33, 50, 116, 85, 102, 141, 164, 188, 186, 194, 230, 262, 228, 246, 244, 217, 220, 240, 220, 241, 209, 238, 198, 212, 183, 157, 174, 128, 122, 123, 145, 92, 91, 59, 59, 53, 42, 19, 0, 0, 0, 0, 0, 0, 0, 0, 0, 0, 0, 0, 0, 0, 0, 0, 0, 0, 0, 0, 0, 0, 0, 0, 0, 0, 0, 0, 0, 0, 0, 0, 0, 0, 0, 0, 0, 0, 0, 0, 0, 0, 0, 0, 0, 0, 0, 0, 0, 0, 0, 0, 0, 0, 0, 0, 0, 0, 0, 0
0, 0, 26, 0, 2, 8, 16, 26, 46, 63, 116, 91, 124, 146, 180, 195, 209, 219, 228, 216, 236, 262, 240, 234, 256, 255, 221, 251, 208, 188, 193, 185, 172, 156, 156, 151, 131, 126, 97, 97, 95, 89, 67, 49, 40, 25, 1, 0, 0, 0, 0, 0, 0, 0, 0, 0, 0, 0, 0, 0, 0, 0, 0, 0, 0, 0, 0, 0, 0, 0, 0, 0, 0, 0, 0, 0, 0, 0, 0, 0, 0, 0, 0, 0, 0, 0, 0, 0, 0, 0, 0, 0, 0, 0, 0, 0, 0, 0, 0, 0, 0, 0, 0, 0, 0, 0
0, 0, 27, 2, 2, 5, 19, 33, 46, 73, 109, 85, 106, 148, 179, 207, 191, 219, 228, 235, 244, 256, 255, 250, 259, 209, 240, 238, 224, 232, 187, 178, 206, 156, 172, 173, 149, 114, 120, 121, 102, 81, 62, 46, 34, 21, 2, 0, 0, 0, 0, 0, 0, 0, 0, 0, 0, 0, 0, 0, 0, 0, 0, 0, 0, 0, 0, 0, 0, 0, 0, 0, 0, 0, 0, 0, 0, 0, 0, 0, 0, 0, 0, 0, 0, 0, 0, 0, 0, 0, 0, 0, 0, 0, 0, 0, 0, 0, 0, 0, 0, 0, 0, 0, 0, 0
0, 0, 28, 0, 8, 12, 19, 39, 37, 50, 110, 107, 106, 137, 187, 178, 194, 208, 181, 220, 257, 257, 244, 235, 253, 227, 210, 205, 207, 219, 190, 189, 179, 160, 158, 133, 152, 114, 138, 92, 82, 79, 61, 55, 45, 22, 2, 0, 0, 0, 0, 0, 0, 0, 0, 0, 0, 0, 0, 0, 0, 0, 0, 0, 0, 0, 0, 0, 0, 0, 0, 0, 0, 0, 0, 0, 0, 0, 0, 0, 0, 0, 0, 0, 0, 0, 0, 0, 0, 0, 0, 0, 0, 0, 0, 0, 0, 0, 0, 0, 0, 0, 0, 0, 0, 0
0, 0, 29, 8, 6, 11, 15, 21, 34, 59, 115, 85, 117, 128, 185, 181, 189, 216, 227, 288, 270, 246, 231, 237, 220, 249, 236, 235, 206, 180, 213, 195, 172, 191, 146, 128, 135, 121, 114, 102, 85, 96, 89, 50, 41, 24, 1, 0, 0, 0, 0, 0, 0, 0, 0, 0, 0, 0, 0, 0, 0, 0, 0, 0, 0, 0, 0, 0, 0, 0, 0, 0, 0, 0, 0, 0, 0, 0, 0, 0, 0, 0, 0, 0, 0, 0, 0, 0, 0, 0, 0, 0, 0, 0, 0, 0, 0, 0, 0, 0, 0, 0, 0, 0, 0, 0
0, 0, 30, 6, 6, 4, 8, 22, 33, 58, 109, 110, 137, 142, 167, 185, 179, 202, 249, 236, 252, 229, 272, 246, 228, 184, 235, 214, 228, 212, 175, 187, 175, 167, 162, 159, 132, 102, 107, 104, 88, 74, 68, 61, 30, 23, 0, 0, 0, 0, 0, 0, 0, 0, 0, 0, 0, 0, 0, 0, 0, 0, 0, 0, 0, 0, 0, 0, 0, 0, 0, 0, 0, 0, 0, 0, 0, 0, 0, 0, 0, 0, 0, 0, 0, 0, 0, 0, 0, 0, 0, 0, 0, 0, 0, 0, 0, 0, 0, 0, 0, 0, 0, 0, 0, 0
0, 0, 31, 2, 2, 9, 14, 26, 39, 59, 129, 80, 94, 150, 173, 178, 174, 208, 208, 197, 297, 241, 270, 224, 237, 237, 212, 207, 227, 208, 204, 192, 174, 165, 137, 151, 130, 144, 127, 101, 111, 85, 64, 52, 42, 22, 1, 0, 0, 0, 0, 0, 0, 0, 0, 0, 0, 0, 0, 0, 0, 0, 0, 0, 0, 0, 0, 0, 0, 0, 0, 0, 0, 0, 0, 0, 0, 0, 0, 0, 0, 0, 0, 0, 0, 0, 0, 0, 0, 0, 0, 0, 0, 0, 0, 0, 0, 0, 0, 0, 0, 0, 0, 0, 0, 0
0, 0, 32, 4, 3, 9, 16, 27, 35, 53, 108, 91, 106, 150, 160, 201, 184, 207, 233, 236, 251, 279, 253, 253, 256, 217, 245, 240, 209, 226, 214, 196, 191, 170, 164, 157, 130, 122, 120, 86, 67, 79, 62, 43, 41, 27, 0, 0, 0, 0, 0, 0, 0, 0, 0, 0, 0, 0, 0, 0, 0, 0, 0, 0, 0, 0, 0, 0, 0, 0, 0, 0, 0, 0, 0, 0, 0, 0, 0, 0, 0, 0, 0, 0, 0, 0, 0, 0, 0, 0, 0, 0, 0, 0, 0, 0, 0, 0, 0, 0, 0, 0, 0, 0, 0, 0
0, 0, 33, 2, 5, 2, 18, 30, 47, 62, 112, 89, 119, 128, 193, 196, 200, 217, 237, 260, 212, 264, 261, 247, 297, 226, 243, 233, 229, 207, 211, 168, 159, 197, 147, 101, 129, 131, 116, 107, 67, 82, 70, 71, 36, 22, 0, 0, 0, 0, 0, 0, 0, 0, 0, 0, 0, 0, 0, 0, 0, 0, 0, 0, 0, 0, 0, 0, 0, 0, 0, 0, 0, 0, 0, 0, 0, 0, 0, 0, 0, 0, 0, 0, 0, 0, 0, 0, 0, 0, 0, 0, 0, 0, 0, 0, 0, 0, 0, 0, 0, 0, 0, 0, 0, 0
0, 0, 34, 2, 4, 7, 18, 25, 36, 54, 128, 87, 111, 136, 150, 185, 208, 204, 220, 234, 265, 258, 239, 240, 240, 258, 218, 251, 181, 228, 176, 178, 196, 175, 153, 159, 133, 122, 101, 95, 81, 78, 66, 61, 46, 25, 1, 0, 0, 0, 0, 0, 0, 0, 0, 0, 0, 0, 0, 0, 0, 0, 0, 0, 0, 0, 0, 0, 0, 0, 0, 0, 0, 0, 0, 0, 0, 0, 0, 0, 0, 0, 0, 0, 0, 0, 0, 0, 0, 0, 0, 0, 0, 0, 0, 0, 0, 0, 0, 0, 0, 0, 0, 0, 0, 0
0, 0, 35, 3, 1, 9, 17, 24, 43, 64, 143, 91, 99, 130, 201, 196, 183, 214, 225, 250, 224, 232, 251, 214, 243, 244, 225, 226, 224, 221, 214, 197, 178, 155, 161, 136, 136, 138, 124, 106, 97, 72, 66, 66, 44, 25, 0, 0, 0, 0, 0, 0, 0, 0, 0, 0, 0, 0, 0, 0, 0, 0, 0, 0, 0, 0, 0, 0, 0, 0, 0, 0, 0, 0, 0, 0, 0, 0, 0, 0, 0, 0, 0, 0, 0, 0, 0, 0, 0, 0, 0, 0, 0, 0, 0, 0, 0, 0, 0, 0, 0, 0, 0, 0, 0, 0
0, 0, 36, 1, 3, 10, 14, 23, 36, 44, 135, 76, 121, 145, 172, 195, 205, 218, 231, 222, 257, 264, 271, 254, 259, 284, 233, 231, 213, 205, 181, 189, 187, 161, 161, 155, 114, 151, 126, 112, 100, 81, 73, 58, 42, 28, 2, 0, 0, 0, 0, 0, 0, 0, 0, 0, 0, 0, 0, 0, 0, 0, 0, 0, 0, 0, 0, 0, 0, 0, 0, 0, 0, 0, 0, 0, 0, 0, 0, 0, 0, 0, 0, 0, 0, 0, 0, 0, 0, 0, 0, 0, 0, 0, 0, 0, 0, 0, 0, 0, 0, 0, 0, 0, 0, 0
0, 0, 37, 0, 3, 6, 22, 19, 47, 63, 126, 78, 102, 172, 163, 185, 180, 193, 184, 221, 235, 242, 235, 222, 232, 263, 286, 245, 232, 220, 215, 196, 182, 169, 175, 164, 141, 108, 119, 86, 95, 75, 55, 67, 37, 34, 1, 0, 0, 0, 0, 0, 0, 0, 0, 0, 0, 0, 0, 0, 0, 0, 0, 0, 0, 0, 0, 0, 0, 0, 0, 0, 0, 0, 0, 0, 0, 0, 0, 0, 0, 0, 0, 0, 0, 0, 0, 0, 0, 0, 0, 0, 0, 0, 0, 0, 0, 0, 0, 0, 0, 0, 0, 0, 0, 0
0, 0, 38, 1, 6, 8, 18, 16, 33, 49, 118, 80, 120, 139, 172, 185, 193, 212, 234, 261, 226, 227, 264, 252, 216, 235, 249, 228, 232, 204, 197, 200, 178, 158, 142, 153, 140, 106, 100, 106, 102, 91, 65, 35, 47, 18, 0, 0, 0, 0, 0, 0, 0, 0, 0, 0, 0, 0, 0, 0, 0, 0, 0, 0, 0, 0, 0, 0, 0, 0, 0, 0, 0, 0, 0, 0, 0, 0, 0, 0, 0, 0, 0, 0, 0, 0, 0, 0, 0, 0, 0, 0, 0, 0, 0, 0, 0, 0, 0, 0, 0, 0, 0, 0, 0, 0
0, 0, 39, 1, 2, 8, 12, 28, 39, 45, 133, 99, 125, 124, 148, 183, 218, 202, 224, 233, 213, 280, 252, 271, 266, 216, 220, 225, 212, 229, 192, 174, 178, 158, 171, 145, 150, 139, 116, 91, 95, 72, 69, 43, 36, 27, 3, 0, 0, 0, 0, 0, 0, 0, 0, 0, 0, 0, 0, 0, 0, 0, 0, 0, 0, 0, 0, 0, 0, 0, 0, 0, 0, 0, 0, 0, 0, 0, 0, 0, 0, 0, 0, 0, 0, 0, 0, 0, 0, 0, 0, 0, 0, 0, 0, 0, 0, 0, 0, 0, 0, 0, 0, 0, 0, 0
0, 0, 40, 2, 2, 11, 17, 27, 50, 55, 111, 116, 127, 155, 142, 205, 216, 206, 245, 240, 248, 271, 248, 253, 240, 239, 237, 231, 226, 210, 224, 225, 154, 156, 140, 162, 137, 129, 121, 109, 90, 65, 61, 63, 39, 20, 3, 0, 0, 0, 0, 0, 0, 0, 0, 0, 0, 0, 0, 0, 0, 0, 0, 0, 0, 0, 0, 0, 0, 0, 0, 0, 0, 0, 0, 0, 0, 0, 0, 0, 0, 0, 0, 0, 0, 0, 0, 0, 0, 0, 0, 0, 0, 0, 0, 0, 0, 0, 0, 0, 0, 0, 0, 0, 0, 0
0, 0, 41, 3, 3, 3, 14, 25, 48, 47, 104, 81, 108, 139, 172, 195, 171, 197, 212, 217, 228, 233, 232, 232, 228, 209, 236, 223, 195, 204, 181, 147, 179, 160, 160, 137, 155, 132, 114, 75, 98, 85, 75, 53, 41, 13, 1, 0, 0, 0, 0, 0, 0, 0, 0, 0, 0, 0, 0, 0, 0, 0, 0, 0, 0, 0, 0, 0, 0, 0, 0, 0, 0, 0, 0, 0, 0, 0, 0, 0, 0, 0, 0, 0, 0, 0, 0, 0, 0, 0, 0, 0, 0, 0, 0, 0, 0, 0, 0, 0, 0, 0, 0, 0, 0, 0
0, 0, 42, 2, 4, 8, 10, 19, 29, 42, 91, 61, 83, 94, 155, 137, 181, 170, 174, 208, 184, 211, 172, 171, 194, 191, 196, 197, 167, 180, 154, 143, 177, 159, 109, 145, 119, 109, 132, 79, 77, 85, 59, 48, 32, 18, 0, 0, 0, 0, 0, 0, 0, 0, 0, 0, 0, 0, 0, 0, 0, 0, 0, 0, 0, 0, 0, 0, 0, 0, 0, 0, 0, 0, 0, 0, 0, 0, 0, 0, 0, 0, 0, 0, 0, 0, 0, 0, 0, 0, 0, 0, 0, 0, 0, 0, 0, 0, 0, 0, 0, 0, 0, 0, 0, 0
0, 0, 43, 1, 1, 7, 3, 13, 19, 50, 65, 61, 62, 78, 114, 147, 131, 149, 176, 183, 191, 201, 176, 178, 158, 191, 163, 162, 137, 127, 135, 127, 124, 124, 114, 105, 81, 90, 99, 63, 75, 52, 41, 32, 24, 12, 0, 0, 0, 0, 0, 0, 0, 0, 0, 0, 0, 0, 0, 0, 0, 0, 0, 0, 0, 0, 0, 0, 0, 0, 0, 0, 0, 0, 0, 0, 0, 0, 0, 0, 0, 0, 0, 0, 0, 0, 0, 0, 0, 0, 0, 0, 0, 0, 0, 0, 0, 0, 0, 0, 0, 0, 0, 0, 0, 0
0, 0, 44, 2, 2, 1, 8, 14, 21, 23, 59, 40, 55, 75, 74, 115, 112, 118, 119, 145, 135, 140, 125, 156, 165, 142, 138, 159, 121, 141, 125, 138, 118, 108, 88, 96, 88, 80, 71, 56, 54, 62, 33, 45, 24, 10, 1, 0, 0, 0, 0, 0, 0, 0, 0, 0, 0, 0, 0, 0, 0, 0, 0, 0, 0, 0, 0, 0, 0, 0, 0, 0, 0, 0, 0, 0, 0, 0, 0, 0, 0, 0, 0, 0, 0, 0, 0, 0, 0, 0, 0, 0, 0, 0, 0, 0, 0, 0, 0, 0, 0, 0, 0, 0, 0, 0
0, 0, 45, 0, 0, 5, 5, 5, 10, 16, 44, 30, 35, 60, 68, 99, 97, 96, 98, 119, 126, 131, 140, 122, 131, 95, 128, 101, 127, 116, 117, 113, 103, 86, 81, 75, 75, 70, 68, 65, 57, 49, 34, 31, 32, 13, 0, 0, 0, 0, 0, 0, 0, 0, 0, 0, 0, 0, 0, 0, 0, 0, 0, 0, 0, 0, 0, 0, 0, 0, 0, 0, 0, 0, 0, 0, 0, 0, 0, 0, 0, 0, 0, 0, 0, 0, 0, 0, 0, 0, 0, 0, 0, 0, 0, 0, 0, 0, 0, 0, 0, 0, 0, 0, 0, 0
0, 0, 46, 2, 2, 0, 2, 7, 6, 12, 36, 20, 27, 37, 47, 73, 62, 51, 87, 88, 106, 87, 91, 97, 98, 91, 100, 123, 94, 110, 109, 89, 78, 81, 92, 64, 56, 64, 62, 60, 43, 42, 41, 27, 26, 8, 0, 0, 0, 0, 0, 0, 0, 0, 0, 0, 0, 0, 0, 0, 0, 0, 0, 0, 0, 0, 0, 0, 0, 0, 0, 0, 0, 0, 0, 0, 0, 0, 0, 0, 0, 0, 0, 0, 0, 0, 0, 0, 0, 0, 0, 0, 0, 0, 0, 0, 0, 0, 0, 0, 0, 0, 0, 0, 0, 0
0, 0, 47, 5, 1, 0, 0, 1, 2, 5, 23, 14, 24, 39, 38, 73, 47, 60, 72, 77, 85, 103, 95, 89, 92, 98, 101, 85, 76, 87, 74, 62, 74, 72, 83, 62, 58, 62, 48, 37, 60, 43, 36, 22, 24, 12, 0, 0, 0, 0, 0, 0, 0, 0, 0, 0, 0, 0, 0, 0, 0, 0, 0, 0, 0, 0, 0, 0, 0, 0, 0, 0, 0, 0, 0, 0, 0, 0, 0, 0, 0, 0, 0, 0, 0, 0, 0, 0, 0, 0, 0, 0, 0, 0, 0, 0, 0, 0, 0, 0, 0, 0, 0, 0, 0, 0
0, 0, 48, 2, 0, 0, 0, 1, 1, 12, 21, 15, 19, 20, 27, 48, 49, 73, 55, 52, 85, 91, 84, 92, 85, 76, 78, 76, 88, 81, 71, 59, 77, 76, 53, 65, 56, 58, 51, 50, 48, 36, 33, 27, 16, 10, 1, 0, 0, 0, 0, 0, 0, 0, 0, 0, 0, 0, 0, 0, 0, 0, 0, 0, 0, 0, 0, 0, 0, 0, 0, 0, 0, 0, 0, 0, 0, 0, 0, 0, 0, 0, 0, 0, 0, 0, 0, 0, 0, 0, 0, 0, 0, 0, 0, 0, 0, 0, 0, 0, 0, 0, 0, 0, 0, 0
0, 0, 49, 3, 0, 0, 0, 3, 2, 2, 18, 14, 15, 24, 39, 36, 43, 43, 45, 75, 73, 99, 72, 63, 73, 86, 64, 74, 93, 63, 74, 84, 72, 86, 71, 60, 63, 53, 49, 59, 43, 25, 40, 25, 13, 13, 1, 0, 0, 0, 0, 0, 0, 0, 0, 0, 0, 0, 0, 0, 0, 0, 0, 0, 0, 0, 0, 0, 0, 0, 0, 0, 0, 0, 0, 0, 0, 0, 0, 0, 0, 0, 0, 0, 0, 0, 0, 0, 0, 0, 0, 0, 0, 0, 0, 0, 0, 0, 0, 0, 0, 0, 0, 0, 0, 0
0, 0, 50, 0, 0, 0, 1, 0, 5, 5, 18, 14, 21, 25, 26, 54, 42, 58, 70, 67, 52, 75, 76, 80, 68, 76, 87, 70, 69, 78, 92, 71, 81, 66, 67, 66, 44, 61, 62, 68, 36, 42, 19, 25, 17, 6, 2, 0, 0, 0, 0, 0, 0, 0, 0, 0, 0, 0, 0, 0, 0, 0, 0, 0, 0, 0, 0, 0, 0, 0, 0, 0, 0, 0, 0, 0, 0, 0, 0, 0, 0, 0, 0, 0, 0, 0, 0, 0, 0, 0, 0, 0, 0, 0, 0, 0, 0, 0, 0, 0, 0, 0, 0, 0, 0, 0
0, 0, 51, 0, 0, 0, 0, 0, 3, 6, 21, 21, 25, 31, 41, 41, 45, 48, 58, 74, 60, 74, 80, 64, 64, 73, 77, 75, 75, 88, 98, 71, 61, 61, 67, 55, 71, 49, 52, 44, 45, 36, 27, 25, 14, 12, 0, 0, 0, 0, 0, 0, 0, 0, 0, 0, 0, 0, 0, 0, 0, 0, 0, 0, 0, 0, 0, 0, 0, 0, 0, 0, 0, 0, 0, 0, 0, 0, 0, 0, 0, 0, 0, 0, 0, 0, 0, 0, 0, 0, 0, 0, 0, 0, 0, 0, 0, 0, 0, 0, 0, 0, 0, 0, 0, 0
0, 0, 52, 2, 0, 0, 0, 1, 3, 9, 20, 21, 25, 43, 43, 58, 67, 61, 66, 75, 102, 105, 91, 91, 87, 95, 93, 90, 109, 90, 84, 80, 84, 92, 61, 71, 77, 73, 57, 49, 55, 28, 38, 32, 20, 7, 3, 0, 0, 0, 0, 0, 0, 0, 0, 0, 0, 0, 0, 0, 0, 0, 0, 0, 0, 0, 0, 0, 0, 0, 0, 0, 0, 0, 0, 0, 0, 0, 0, 0, 0, 0, 0, 0, 0, 0, 0, 0, 0, 0, 0, 0, 0, 0, 0, 0, 0, 0, 0, 0, 0, 0, 0, 0, 0, 0
0, 0, 53, 2, 0, 1, 3, 8, 8, 7, 31, 20, 38, 43, 50, 68, 68, 86, 70, 78, 98, 117, 100, 113, 119, 85, 91, 91, 90, 92, 93, 99, 81, 84, 76, 79, 77, 70, 54, 47, 63, 51, 39, 33, 28, 12, 1, 0, 0, 0, 0, 0, 0, 0, 0, 0, 0, 0, 0, 0, 0, 0, 0, 0, 0, 0, 0, 0, 0, 0, 0, 0, 0, 0, 0, 0, 0, 0, 0, 0, 0, 0, 0, 0, 0, 0, 0, 0, 0, 0, 0, 0, 0, 0, 0, 0, 0, 0, 0, 0, 0, 0, 0, 0, 0, 0
0, 0, 54, 2, 0, 5, 5, 5, 10, 28, 48, 32, 41, 59, 65, 101, 94, 110, 108, 120, 101, 142, 114, 127, 134, 109, 111, 120, 120, 108, 66, 114, 92, 85, 86, 80, 56, 77, 61, 58, 65, 47, 35, 43, 24, 9, 0, 0, 0, 0, 0, 0, 0, 0, 0, 0, 0, 0, 0, 0, 0, 0, 0, 0, 0, 0, 0, 0, 0, 0, 0, 0, 0, 0, 0, 0, 0, 0, 0, 0, 0, 0, 0, 0, 0, 0, 0, 0, 0, 0, 0, 0, 0, 0, 0, 0, 0, 0, 0, 0, 0, 0, 0, 0, 0, 0
0, 0, 55, 4, 2, 3, 7, 8, 19, 16, 54, 49, 65, 82, 93, 98, 104, 104, 143, 105, 154, 160, 125, 139, 149, 161, 134, 130, 118, 116, 112, 137, 111, 92, 104, 102, 91, 67, 82, 73, 67, 55, 51, 54, 29, 10, 1, 0, 0, 0, 0, 0, 0, 0, 0, 0, 0, 0, 0, 0, 0, 0, 0, 0, 0, 0, 0, 0, 0, 0, 0, 0, 0, 0, 0, 0, 0, 0, 0, 0, 0, 0, 0, 0, 0, 0, 0, 0, 0, 0, 0, 0, 0, 0, 0, 0, 0, 0, 0, 0, 0, 0, 0, 0, 0, 0
0, 0, 56, 2, 2, 2, 3, 12, 31, 37, 78, 56, 75, 92, 91, 110, 132, 121, 162, 151, 188, 170, 148, 163, 159, 149, 163, 150, 178, 167, 134, 118, 144, 125, 94, 117, 95, 95, 83, 84, 64, 65, 43, 41, 23, 14, 0, 0, 0, 0, 0, 0, 0, 0, 0, 0, 0, 0, 0, 0, 0, 0, 0, 0, 0, 0, 0, 0, 0, 0, 0, 0, 0, 0, 0, 0, 0, 0, 0, 0, 0, 0, 0, 0, 0, 0, 0, 0, 0, 0, 0, 0, 0, 0, 0, 0, 0, 0, 0, 0, 0, 0, 0, 0, 0, 0
0, 0, 57, 1, 2, 3, 17, 23, 26, 35, 83, 81, 85, 111, 142, 151, 156, 178, 197, 168, 179, 195, 218, 203, 186, 191, 176, 197, 185, 186, 181, 135, 141, 143, 122, 143, 108, 113, 96, 104, 86, 60, 58, 34, 34, 18, 0, 0, 0, 0, 0, 0, 0, 0, 0, 0, 0, 0, 0, 0, 0, 0, 0, 0, 0, 0, 0, 0, 0, 0, 0, 0, 0, 0, 0, 0, 0, 0, 0, 0, 0, 0, 0, 0, 0, 0, 0, 0, 0, 0, 0, 0, 0, 0, 0, 0, 0, 0, 0, 0, 0, 0, 0, 0, 0, 0
0, 0, 58, 4, 2, 7, 15, 24, 45, 62, 103, 78, 100, 122, 167, 205, 185, 196, 210, 247, 245, 243, 228, 238, 227, 221, 194, 189, 200, 199, 180, 180, 190, 149, 132, 154, 141, 109, 101, 112, 96, 76, 44, 37, 30, 20, 0, 0, 0, 0, 0, 0, 0, 0, 0, 0, 0, 0, 0, 0, 0, 0, 0, 0, 0, 0, 0, 0, 0, 0, 0, 0, 0, 0, 0, 0, 0, 0, 0, 0, 0, 0, 0, 0, 0, 0, 0, 0, 0, 0, 0, 0, 0, 0, 0, 0, 0, 0, 0, 0, 0, 0, 0, 0, 0, 0
0, 0, 59, 5, 2, 11, 20, 20, 38, 63, 108, 80, 121, 119, 162, 201, 211, 221, 229, 244, 244, 245, 231, 256, 245, 240, 251, 233, 224, 216, 204, 186, 200, 183, 172, 163, 157, 132, 90, 103, 68, 86, 82, 52, 38, 23, 2, 0, 0, 0, 0, 0, 0, 0, 0, 0, 0, 0, 0, 0, 0, 0, 0, 0, 0, 0, 0, 0, 0, 0, 0, 0, 0, 0, 0, 0, 0, 0, 0, 0, 0, 0, 0, 0, 0, 0, 0, 0, 0, 0, 0, 0, 0, 0, 0, 0, 0, 0, 0, 0, 0, 0, 0, 0, 0, 0
0, 0, 60, 0, 4, 5, 14, 26, 39, 52, 125, 99, 127, 128, 170, 195, 191, 216, 225, 216, 265, 259, 267, 228, 267, 263, 252, 227, 242, 210, 197, 191, 183, 153, 145, 132, 122, 116, 112, 102, 104, 67, 78, 54, 43, 21, 4, 0, 0, 0, 0, 0, 0, 0, 0, 0, 0, 0, 0, 0, 0, 0, 0, 0, 0, 0, 0, 0, 0, 0, 0, 0, 0, 0, 0, 0, 0, 0, 0, 0, 0, 0, 0, 0, 0, 0, 0, 0, 0, 0, 0, 0, 0, 0, 0, 0, 0, 0, 0, 0, 0, 0, 0, 0, 0, 0
0, 0, 61, 6, 2, 7, 13, 23, 38, 58, 132, 108, 138, 140, 182, 182, 198, 228, 263, 252, 219, 281, 271, 221, 237, 255, 252, 201, 199, 213, 193, 183, 185, 165, 146, 159, 139, 123, 108, 97, 96, 75, 73, 59, 41, 27, 3, 0, 0, 0, 0, 0, 0, 0, 0, 0, 0, 0, 0, 0, 0, 0, 0, 0, 0, 0, 0, 0, 0, 0, 0, 0, 0, 0, 0, 0, 0, 0, 0, 0, 0, 0, 0, 0, 0, 0, 0, 0, 0, 0, 0, 0, 0, 0, 0, 0, 0, 0, 0, 0, 0, 0, 0, 0, 0, 0
0, 0, 62, 3, 3, 8, 15, 41, 38, 49, 123, 92, 147, 163, 164, 183, 217, 181, 224, 235, 261, 241, 252, 233, 244, 266, 244, 261, 196, 184, 191, 193, 186, 159, 142, 153, 137, 123, 127, 103, 91, 81, 70, 60, 29, 18, 0, 0, 0, 0, 0, 0, 0, 0, 0, 0, 0, 0, 0, 0, 0, 0, 0, 0, 0, 0, 0, 0, 0, 0, 0, 0, 0, 0, 0, 0, 0, 0, 0, 0, 0, 0, 0, 0, 0, 0, 0, 0, 0, 0, 0, 0, 0, 0, 0, 0, 0, 0, 0, 0, 0, 0, 0, 0, 0, 0
0, 0, 63, 4, 5, 10, 15, 29, 39, 66, 138, 97, 103, 147, 175, 215, 177, 235, 243, 222, 238, 252, 227, 239, 256, 254, 254, 214, 250, 233, 174, 213, 170, 204, 169, 137, 134, 109, 105, 109, 74, 74, 54, 60, 41, 18, 2, 0, 0, 0, 0, 0, 0, 0, 0, 0, 0, 0, 0, 0, 0, 0, 0, 0, 0, 0, 0, 0, 0, 0, 0, 0, 0, 0, 0, 0, 0, 0, 0, 0, 0, 0, 0, 0, 0, 0, 0, 0, 0, 0, 0, 0, 0, 0, 0, 0, 0, 0, 0, 0, 0, 0, 0, 0, 0, 0
0, 0, 64, 2, 4, 8, 17, 22, 42, 54, 119, 90, 114, 150, 172, 198, 228, 228, 227, 228, 219, 229, 251, 229, 246, 261, 231, 189, 212, 228, 212, 197, 166, 169, 152, 133, 125, 128, 102, 104, 90, 83, 69, 50, 36, 25, 3, 0, 0, 0, 0, 0, 0, 0, 0, 0, 0, 0, 0, 0, 0, 0, 0, 0, 0, 0, 0, 0, 0, 0, 0, 0, 0, 0, 0, 0, 0, 0, 0, 0, 0, 0, 0, 0, 0, 0, 0, 0, 0, 0, 0, 0, 0, 0, 0, 0, 0, 0, 0, 0, 0, 0, 0, 0, 0, 0
0, 0, 65, 1, 0, 9, 14, 21, 43, 63, 123, 82, 109, 140, 147, 198, 202, 200, 206, 236, 291, 284, 266, 268, 250, 239, 268, 212, 215, 205, 206, 203, 183, 166, 187, 151, 144, 126, 107, 92, 68, 70, 68, 50, 36, 23, 0, 0, 0, 0, 0, 0, 0, 0, 0, 0, 0, 0, 0, 0, 0, 0, 0, 0, 0, 0, 0, 0, 0, 0, 0, 0, 0, 0, 0, 0, 0, 0, 0, 0, 0, 0, 0, 0, 0, 0, 0, 0, 0, 0, 0, 0, 0, 0, 0, 0, 0, 0, 0, 0, 0, 0, 0, 0, 0, 0
0, 0, 66, 3, 5, 5, 12, 27, 48, 60, 121, 105, 109, 117, 161, 195, 190, 211, 237, 265, 255, 231, 274, 250, 236, 245, 218, 221, 253, 219, 209, 176, 206, 137, 158, 143, 167, 133, 116, 110, 98, 66, 58, 62, 42, 13, 2, 0, 0, 0, 0, 0, 0, 0, 0, 0, 0, 0, 0, 0, 0, 0, 0, 0, 0, 0, 0, 0, 0, 0, 0, 0, 0, 0, 0, 0, 0, 0, 0, 0, 0, 0, 0, 0, 0, 0, 0, 0, 0, 0, 0, 0, 0, 0, 0, 0, 0, 0, 0, 0, 0, 0, 0, 0, 0, 0
0, 0, 67, 1, 3, 11, 11, 23, 39, 56, 114, 101, 106, 138, 180, 183, 199, 207, 235, 223, 275, 230, 254, 241, 268, 229, 231, 239, 234, 192, 218, 185, 176, 163, 148, 147, 156, 128, 85, 114, 116, 78, 66, 56, 32, 22, 2, 0, 0, 0, 0, 0, 0, 0, 0, 0, 0, 0, 0, 0, 0, 0, 0, 0, 0, 0, 0, 0, 0, 0, 0, 0, 0, 0, 0, 0, 0, 0, 0, 0, 0, 0, 0, 0, 0, 0, 0, 0, 0, 0, 0, 0, 0, 0, 0, 0, 0, 0, 0, 0, 0, 0, 0, 0, 0, 0
0, 0, 68, 6, 2, 8, 23, 26, 52, 53, 116, 91, 105, 144, 174, 203, 179, 219, 217, 281, 256, 266, 254, 243, 251, 217, 219, 197, 244, 226, 192, 185, 183, 189, 205, 173, 156, 137, 119, 108, 87, 87, 78, 45, 42, 26, 3, 0, 0, 0, 0, 0, 0, 0, 0, 0, 0, 0, 0, 0, 0, 0, 0, 0, 0, 0, 0, 0, 0, 0, 0, 0, 0, 0, 0, 0, 0, 0, 0, 0, 0, 0, 0, 0, 0, 0, 0, 0, 0, 0, 0, 0, 0, 0, 0, 0, 0, 0, 0, 0, 0, 0, 0, 0, 0, 0
0, 0, 69, 1, 6, 8, 17, 16, 36, 64, 115, 92, 115, 142, 182, 182, 178, 229, 207, 254, 196, 251, 246, 253, 243, 234, 237, 245, 238, 217, 218, 169, 178, 166, 157, 152, 138, 129, 138, 83, 85, 71, 74, 44, 26, 19, 2, 0, 0, 0, 0, 0, 0, 0, 0, 0, 0, 0, 0, 0, 0, 0, 0, 0, 0, 0, 0, 0, 0, 0, 0, 0, 0, 0, 0, 0, 0, 0, 0, 0, 0, 0, 0, 0, 0, 0, 0, 0, 0, 0, 0, 0, 0, 0, 0, 0, 0, 0, 0, 0, 0, 0, 0, 0, 0, 0
0, 0, 70, 4, 1, 10, 11, 19, 44, 51, 123, 93, 115, 156, 172, 186, 207, 191, 223, 238, 258, 280, 283, 237, 221, 240, 215, 236, 223, 192, 192, 195, 187, 148, 174, 154, 129, 111, 97, 104, 96, 68, 83, 53, 41, 12, 0, 0, 0, 0, 0, 0, 0, 0, 0, 0, 0, 0, 0, 0, 0, 0, 0, 0, 0, 0, 0, 0, 0, 0, 0, 0, 0, 0, 0, 0, 0, 0, 0, 0, 0, 0, 0, 0, 0, 0, 0, 0, 0, 0, 0, 0, 0, 0, 0, 0, 0, 0, 0, 0, 0, 0, 0, 0, 0, 0
0, 0, 71, 4, 1, 7, 16, 30, 27, 51, 108, 104, 117, 163, 161, 208, 186, 196, 209, 256, 253, 240, 243, 261, 227, 224, 232, 234, 217, 236, 204, 190, 185, 191, 152, 161, 160, 121, 120, 107, 75, 58, 69, 52, 42, 12, 0, 0, 0, 0, 0, 0, 0, 0, 0, 0, 0, 0, 0, 0, 0, 0, 0, 0, 0, 0, 0, 0, 0, 0, 0, 0, 0, 0, 0, 0, 0, 0, 0, 0, 0, 0, 0, 0, 0, 0, 0, 0, 0, 0, 0, 0, 0, 0, 0, 0, 0, 0, 0, 0, 0, 0, 0, 0, 0, 0
0, 0, 72, 2, 4, 3, 6, 23, 38, 48, 131, 115, 122, 158, 168, 192, 192, 199, 259, 254, 253, 250, 272, 235, 223, 235, 228, 234, 252, 210, 163, 201, 175, 151, 174, 156, 125, 108, 119, 99, 99, 74, 50, 49, 45, 17, 0, 0, 0, 0, 0, 0, 0, 0, 0, 0, 0, 0, 0, 0, 0, 0, 0, 0, 0, 0, 0, 0, 0, 0, 0, 0, 0, 0, 0, 0, 0, 0, 0, 0, 0, 0, 0, 0, 0, 0, 0, 0, 0, 0, 0, 0, 0, 0, 0, 0, 0, 0, 0, 0, 0, 0, 0, 0, 0, 0
0, 0, 73, 2, 4, 12, 7, 32, 38, 49, 108, 92, 117, 138, 157, 212, 186, 197, 217, 216, 246, 259, 213, 247, 252, 216, 224, 225, 207, 199, 207, 195, 160, 188, 174, 135, 126, 130, 110, 138, 95, 83, 80, 58, 38, 21, 3, 0, 0, 0, 0, 0, 0, 0, 0, 0, 0, 0, 0, 0, 0, 0, 0, 0, 0, 0, 0, 0, 0, 0, 0, 0, 0, 0, 0, 0, 0, 0, 0, 0, 0, 0, 0, 0, 0, 0, 0, 0, 0, 0, 0, 0, 0, 0, 0, 0, 0, 0, 0, 0, 0, 0, 0, 0, 0, 0
0, 0, 74, 5, 2, 10, 20, 28, 39, 57, 120, 93, 120, 160, 158, 188, 187, 186, 249, 259, 244, 285, 222, 225, 211, 235, 232, 236, 221, 199, 184, 199, 181, 163, 187, 142, 159, 117, 131, 113, 80, 85, 69, 47, 33, 36, 0, 0, 0, 0, 0, 0, 0, 0, 0, 0, 0, 0, 0, 0, 0, 0, 0, 0, 0, 0, 0, 0, 0, 0, 0, 0, 0, 0, 0, 0, 0, 0, 0, 0, 0, 0, 0, 0, 0, 0, 0, 0, 0, 0, 0, 0, 0, 0, 0, 0, 0, 0, 0, 0, 0, 0, 0, 0, 0, 0
0, 0, 75, 2, 1, 6, 13, 24, 41, 64, 132, 99, 114, 146, 176, 233, 216, 224, 208, 232, 244, 220, 227, 263, 248, 260, 229, 224, 185, 203, 182, 175, 185, 152, 168, 137, 143, 122, 118, 75, 90, 79, 55, 47, 41, 23, 0, 0, 0, 0, 0, 0, 0, 0, 0, 0, 0, 0, 0, 0, 0, 0, 0, 0, 0, 0, 0, 0, 0, 0, 0, 0, 0, 0, 0, 0, 0, 0, 0, 0, 0, 0, 0, 0, 0, 0, 0, 0, 0, 0, 0, 0, 0, 0, 0, 0, 0, 0, 0, 0, 0, 0, 0, 0, 0, 0
0, 0, 76, 0, 2, 5, 17, 32, 38, 46, 100, 88, 110, 153, 179, 214, 209, 238, 218, 240, 232, 229, 278, 241, 216, 205, 229, 222, 218, 203, 191, 193, 166, 154, 160, 147, 119, 130, 97, 98, 87, 86, 64, 45, 48, 23, 0, 0, 0, 0, 0, 0, 0, 0, 0, 0, 0, 0, 0, 0, 0, 0, 0, 0, 0, 0, 0, 0, 0, 0, 0, 0, 0, 0, 0, 0, 0, 0, 0, 0, 0, 0, 0, 0, 0, 0, 0, 0, 0, 0, 0, 0, 0, 0, 0, 0, 0, 0, 0, 0, 0, 0, 0, 0, 0, 0
0, 0, 77, 4, 1, 8, 16, 26, 50, 51, 119, 87, 128, 147, 168, 193, 231, 208, 221, 248, 246, 240, 255, 264, 268, 247, 242, 217, 232, 232, 186, 203, 186, 184, 167, 110, 153, 130, 124, 118, 80, 77, 71, 67, 38, 18, 1, 0, 0, 0, 0, 0, 0, 0, 0, 0, 0, 0, 0, 0, 0, 0, 0, 0, 0, 0, 0, 0, 0, 0, 0, 0, 0, 0, 0, 0, 0, 0, 0, 0, 0, 0, 0, 0, 0, 0, 0, 0, 0, 0, 0, 0, 0, 0, 0, 0, 0, 0, 0, 0, 0, 0, 0, 0, 0, 0
