# TOPAS Version: 3.1.p3
# Parameter File: REDLEN_small_phantom_mc_basic_3cm.txt
# Results for scorer PhantomDose
# Scored on surface: CdTeCrystal1/YPlusSurface
# X in 100 bins of 0.03332 cm
# Y in 1 bin  of 0.4 cm
# Z in 100 bins of 0.0375 cm
# SurfaceTrackCount : Sum   
# Binned by incident track energy in 100 bins of 0.00104 MeV from 0.016 MeV to 0.12 MeV
# First bin is underflow, next to last bin is overflow, last bin is for case of no incident track.
0, 0, 0, 0, 0, 0, 0, 0, 0, 0, 0, 0, 0, 2, 0, 0, 7, 2, 0, 4, 3, 1, 5, 2, 6, 4, 3, 2, 3, 2, 2, 4, 3, 2, 6, 1, 2, 1, 1, 0, 3, 1, 1, 0, 0, 0, 0, 0, 0, 0, 0, 0, 0, 0, 0, 0, 0, 0, 0, 0, 0, 0, 0, 0, 0, 0, 0, 0, 0, 0, 0, 0, 0, 0, 0, 0, 0, 0, 0, 0, 0, 0, 0, 0, 0, 0, 0, 0, 0, 0, 0, 0, 0, 0, 0, 0, 0, 0, 0, 0, 0, 0, 0, 0, 0, 0
0, 0, 1, 0, 0, 0, 0, 0, 0, 1, 0, 0, 0, 1, 1, 1, 0, 2, 3, 3, 3, 6, 3, 2, 2, 1, 3, 4, 3, 2, 5, 3, 4, 5, 2, 1, 0, 0, 1, 5, 0, 2, 2, 0, 1, 0, 0, 0, 0, 0, 0, 0, 0, 0, 0, 0, 0, 0, 0, 0, 0, 0, 0, 0, 0, 0, 0, 0, 0, 0, 0, 0, 0, 0, 0, 0, 0, 0, 0, 0, 0, 0, 0, 0, 0, 0, 0, 0, 0, 0, 0, 0, 0, 0, 0, 0, 0, 0, 0, 0, 0, 0, 0, 0, 0, 0
0, 0, 2, 0, 0, 0, 0, 0, 0, 2, 1, 1, 0, 3, 0, 2, 3, 1, 2, 0, 5, 2, 2, 6, 7, 0, 4, 3, 2, 1, 1, 2, 0, 0, 1, 1, 3, 0, 0, 1, 1, 2, 2, 1, 1, 0, 0, 0, 0, 0, 0, 0, 0, 0, 0, 0, 0, 0, 0, 0, 0, 0, 0, 0, 0, 0, 0, 0, 0, 0, 0, 0, 0, 0, 0, 0, 0, 0, 0, 0, 0, 0, 0, 0, 0, 0, 0, 0, 0, 0, 0, 0, 0, 0, 0, 0, 0, 0, 0, 0, 0, 0, 0, 0, 0, 0
0, 0, 3, 0, 0, 0, 0, 0, 0, 0, 0, 0, 0, 0, 1, 1, 0, 0, 1, 4, 1, 1, 3, 0, 1, 5, 2, 2, 6, 0, 1, 5, 1, 1, 2, 4, 2, 2, 0, 1, 0, 3, 0, 0, 0, 0, 0, 0, 0, 0, 0, 0, 0, 0, 0, 0, 0, 0, 0, 0, 0, 0, 0, 0, 0, 0, 0, 0, 0, 0, 0, 0, 0, 0, 0, 0, 0, 0, 0, 0, 0, 0, 0, 0, 0, 0, 0, 0, 0, 0, 0, 0, 0, 0, 0, 0, 0, 0, 0, 0, 0, 0, 0, 0, 0, 0
0, 0, 4, 2, 0, 0, 0, 0, 0, 0, 1, 0, 1, 4, 3, 1, 1, 0, 0, 1, 1, 2, 1, 5, 2, 3, 1, 3, 2, 5, 2, 3, 3, 2, 6, 3, 1, 4, 1, 0, 0, 1, 0, 0, 0, 1, 0, 0, 0, 0, 0, 0, 0, 0, 0, 0, 0, 0, 0, 0, 0, 0, 0, 0, 0, 0, 0, 0, 0, 0, 0, 0, 0, 0, 0, 0, 0, 0, 0, 0, 0, 0, 0, 0, 0, 0, 0, 0, 0, 0, 0, 0, 0, 0, 0, 0, 0, 0, 0, 0, 0, 0, 0, 0, 0, 0
0, 0, 5, 1, 2, 3, 7, 8, 19, 22, 72, 42, 55, 57, 87, 77, 85, 85, 94, 122, 103, 89, 127, 112, 128, 107, 82, 81, 98, 84, 89, 87, 76, 73, 75, 56, 48, 47, 39, 37, 34, 24, 33, 24, 13, 6, 1, 0, 0, 0, 0, 0, 0, 0, 0, 0, 0, 0, 0, 0, 0, 0, 0, 0, 0, 0, 0, 0, 0, 0, 0, 0, 0, 0, 0, 0, 0, 0, 0, 0, 0, 0, 0, 0, 0, 0, 0, 0, 0, 0, 0, 0, 0, 0, 0, 0, 0, 0, 0, 0, 0, 0, 0, 0, 0, 0
0, 0, 6, 2, 6, 7, 14, 23, 38, 55, 116, 110, 103, 155, 168, 214, 208, 202, 210, 232, 251, 239, 255, 274, 253, 228, 247, 230, 226, 242, 186, 214, 183, 172, 139, 150, 142, 120, 116, 104, 84, 86, 57, 65, 43, 18, 0, 0, 0, 0, 0, 0, 0, 0, 0, 0, 0, 0, 0, 0, 0, 0, 0, 0, 0, 0, 0, 0, 0, 0, 0, 0, 0, 0, 0, 0, 0, 0, 0, 0, 0, 0, 0, 0, 0, 0, 0, 0, 0, 0, 0, 0, 0, 0, 0, 0, 0, 0, 0, 0, 0, 0, 0, 0, 0, 0
0, 0, 7, 0, 2, 9, 13, 25, 44, 55, 131, 106, 125, 151, 156, 175, 223, 206, 228, 247, 247, 268, 267, 218, 246, 217, 241, 229, 215, 204, 211, 188, 187, 167, 172, 156, 149, 106, 98, 106, 86, 77, 55, 50, 51, 21, 0, 0, 0, 0, 0, 0, 0, 0, 0, 0, 0, 0, 0, 0, 0, 0, 0, 0, 0, 0, 0, 0, 0, 0, 0, 0, 0, 0, 0, 0, 0, 0, 0, 0, 0, 0, 0, 0, 0, 0, 0, 0, 0, 0, 0, 0, 0, 0, 0, 0, 0, 0, 0, 0, 0, 0, 0, 0, 0, 0
0, 0, 8, 6, 3, 4, 16, 22, 38, 54, 97, 103, 111, 153, 158, 207, 194, 225, 228, 231, 234, 234, 230, 239, 271, 229, 209, 216, 209, 198, 199, 193, 177, 192, 156, 140, 128, 122, 98, 82, 96, 64, 75, 60, 29, 21, 3, 0, 0, 0, 0, 0, 0, 0, 0, 0, 0, 0, 0, 0, 0, 0, 0, 0, 0, 0, 0, 0, 0, 0, 0, 0, 0, 0, 0, 0, 0, 0, 0, 0, 0, 0, 0, 0, 0, 0, 0, 0, 0, 0, 0, 0, 0, 0, 0, 0, 0, 0, 0, 0, 0, 0, 0, 0, 0, 0
0, 0, 9, 3, 3, 9, 15, 30, 38, 59, 114, 85, 130, 129, 172, 193, 162, 218, 234, 245, 271, 251, 254, 247, 228, 267, 242, 238, 236, 212, 186, 190, 163, 171, 145, 150, 133, 111, 114, 97, 111, 86, 69, 57, 48, 10, 3, 0, 0, 0, 0, 0, 0, 0, 0, 0, 0, 0, 0, 0, 0, 0, 0, 0, 0, 0, 0, 0, 0, 0, 0, 0, 0, 0, 0, 0, 0, 0, 0, 0, 0, 0, 0, 0, 0, 0, 0, 0, 0, 0, 0, 0, 0, 0, 0, 0, 0, 0, 0, 0, 0, 0, 0, 0, 0, 0
0, 0, 10, 1, 6, 5, 14, 22, 56, 53, 110, 93, 129, 136, 173, 195, 200, 191, 210, 257, 245, 241, 281, 211, 238, 267, 207, 243, 217, 220, 179, 219, 181, 157, 150, 136, 150, 138, 123, 107, 108, 87, 68, 58, 27, 13, 2, 0, 0, 0, 0, 0, 0, 0, 0, 0, 0, 0, 0, 0, 0, 0, 0, 0, 0, 0, 0, 0, 0, 0, 0, 0, 0, 0, 0, 0, 0, 0, 0, 0, 0, 0, 0, 0, 0, 0, 0, 0, 0, 0, 0, 0, 0, 0, 0, 0, 0, 0, 0, 0, 0, 0, 0, 0, 0, 0
0, 0, 11, 1, 3, 12, 8, 34, 44, 49, 111, 114, 143, 141, 174, 194, 169, 202, 229, 267, 259, 243, 257, 250, 266, 227, 255, 247, 212, 197, 177, 199, 193, 162, 164, 134, 123, 125, 125, 90, 95, 78, 60, 59, 30, 18, 0, 0, 0, 0, 0, 0, 0, 0, 0, 0, 0, 0, 0, 0, 0, 0, 0, 0, 0, 0, 0, 0, 0, 0, 0, 0, 0, 0, 0, 0, 0, 0, 0, 0, 0, 0, 0, 0, 0, 0, 0, 0, 0, 0, 0, 0, 0, 0, 0, 0, 0, 0, 0, 0, 0, 0, 0, 0, 0, 0
0, 0, 12, 1, 4, 6, 12, 28, 37, 55, 139, 109, 124, 149, 176, 182, 166, 213, 211, 214, 232, 229, 267, 240, 237, 229, 235, 230, 226, 213, 206, 184, 175, 170, 157, 131, 147, 118, 104, 112, 105, 86, 62, 54, 26, 22, 1, 0, 0, 0, 0, 0, 0, 0, 0, 0, 0, 0, 0, 0, 0, 0, 0, 0, 0, 0, 0, 0, 0, 0, 0, 0, 0, 0, 0, 0, 0, 0, 0, 0, 0, 0, 0, 0, 0, 0, 0, 0, 0, 0, 0, 0, 0, 0, 0, 0, 0, 0, 0, 0, 0, 0, 0, 0, 0, 0
0, 0, 13, 10, 3, 11, 17, 25, 51, 39, 111, 100, 120, 141, 173, 215, 192, 198, 228, 268, 226, 258, 263, 228, 272, 226, 240, 217, 205, 213, 175, 184, 198, 151, 184, 136, 158, 120, 102, 124, 96, 86, 82, 64, 36, 23, 3, 0, 0, 0, 0, 0, 0, 0, 0, 0, 0, 0, 0, 0, 0, 0, 0, 0, 0, 0, 0, 0, 0, 0, 0, 0, 0, 0, 0, 0, 0, 0, 0, 0, 0, 0, 0, 0, 0, 0, 0, 0, 0, 0, 0, 0, 0, 0, 0, 0, 0, 0, 0, 0, 0, 0, 0, 0, 0, 0
0, 0, 14, 5, 0, 9, 15, 23, 40, 54, 101, 92, 120, 136, 169, 229, 204, 202, 226, 240, 246, 249, 279, 258, 218, 239, 239, 262, 233, 214, 211, 203, 190, 171, 158, 156, 124, 122, 102, 99, 91, 95, 66, 52, 33, 21, 0, 0, 0, 0, 0, 0, 0, 0, 0, 0, 0, 0, 0, 0, 0, 0, 0, 0, 0, 0, 0, 0, 0, 0, 0, 0, 0, 0, 0, 0, 0, 0, 0, 0, 0, 0, 0, 0, 0, 0, 0, 0, 0, 0, 0, 0, 0, 0, 0, 0, 0, 0, 0, 0, 0, 0, 0, 0, 0, 0
0, 0, 15, 2, 3, 2, 13, 21, 47, 51, 124, 81, 101, 135, 148, 217, 218, 213, 212, 204, 239, 233, 251, 265, 217, 218, 256, 244, 240, 209, 161, 193, 166, 180, 174, 148, 142, 110, 116, 94, 100, 89, 71, 63, 53, 14, 0, 0, 0, 0, 0, 0, 0, 0, 0, 0, 0, 0, 0, 0, 0, 0, 0, 0, 0, 0, 0, 0, 0, 0, 0, 0, 0, 0, 0, 0, 0, 0, 0, 0, 0, 0, 0, 0, 0, 0, 0, 0, 0, 0, 0, 0, 0, 0, 0, 0, 0, 0, 0, 0, 0, 0, 0, 0, 0, 0
0, 0, 16, 3, 5, 6, 17, 30, 43, 46, 117, 109, 114, 173, 203, 180, 214, 207, 249, 273, 260, 264, 215, 249, 246, 261, 249, 214, 211, 218, 220, 210, 174, 162, 159, 157, 162, 130, 123, 78, 90, 74, 66, 45, 39, 28, 1, 0, 0, 0, 0, 0, 0, 0, 0, 0, 0, 0, 0, 0, 0, 0, 0, 0, 0, 0, 0, 0, 0, 0, 0, 0, 0, 0, 0, 0, 0, 0, 0, 0, 0, 0, 0, 0, 0, 0, 0, 0, 0, 0, 0, 0, 0, 0, 0, 0, 0, 0, 0, 0, 0, 0, 0, 0, 0, 0
0, 0, 17, 3, 2, 10, 16, 33, 45, 59, 118, 90, 121, 122, 168, 186, 200, 208, 225, 247, 220, 244, 288, 222, 268, 224, 253, 225, 217, 249, 176, 187, 200, 162, 159, 153, 147, 122, 117, 94, 92, 80, 70, 59, 40, 24, 0, 0, 0, 0, 0, 0, 0, 0, 0, 0, 0, 0, 0, 0, 0, 0, 0, 0, 0, 0, 0, 0, 0, 0, 0, 0, 0, 0, 0, 0, 0, 0, 0, 0, 0, 0, 0, 0, 0, 0, 0, 0, 0, 0, 0, 0, 0, 0, 0, 0, 0, 0, 0, 0, 0, 0, 0, 0, 0, 0
0, 0, 18, 2, 3, 11, 15, 20, 43, 74, 124, 90, 139, 143, 144, 164, 174, 218, 224, 251, 281, 210, 237, 238, 269, 245, 264, 213, 208, 200, 185, 195, 169, 158, 185, 162, 120, 112, 117, 128, 80, 62, 72, 64, 42, 18, 0, 0, 0, 0, 0, 0, 0, 0, 0, 0, 0, 0, 0, 0, 0, 0, 0, 0, 0, 0, 0, 0, 0, 0, 0, 0, 0, 0, 0, 0, 0, 0, 0, 0, 0, 0, 0, 0, 0, 0, 0, 0, 0, 0, 0, 0, 0, 0, 0, 0, 0, 0, 0, 0, 0, 0, 0, 0, 0, 0
0, 0, 19, 4, 1, 9, 10, 18, 36, 53, 109, 99, 109, 145, 153, 208, 193, 204, 232, 218, 235, 231, 270, 257, 207, 251, 238, 230, 226, 207, 194, 192, 186, 145, 144, 148, 147, 143, 98, 109, 96, 76, 66, 51, 30, 16, 3, 0, 0, 0, 0, 0, 0, 0, 0, 0, 0, 0, 0, 0, 0, 0, 0, 0, 0, 0, 0, 0, 0, 0, 0, 0, 0, 0, 0, 0, 0, 0, 0, 0, 0, 0, 0, 0, 0, 0, 0, 0, 0, 0, 0, 0, 0, 0, 0, 0, 0, 0, 0, 0, 0, 0, 0, 0, 0, 0
0, 0, 20, 7, 5, 4, 17, 23, 49, 46, 114, 74, 96, 172, 179, 223, 179, 203, 218, 242, 265, 230, 264, 246, 252, 249, 241, 224, 218, 220, 201, 181, 176, 171, 134, 116, 125, 119, 114, 100, 106, 87, 59, 50, 39, 20, 3, 0, 0, 0, 0, 0, 0, 0, 0, 0, 0, 0, 0, 0, 0, 0, 0, 0, 0, 0, 0, 0, 0, 0, 0, 0, 0, 0, 0, 0, 0, 0, 0, 0, 0, 0, 0, 0, 0, 0, 0, 0, 0, 0, 0, 0, 0, 0, 0, 0, 0, 0, 0, 0, 0, 0, 0, 0, 0, 0
0, 0, 21, 4, 6, 8, 16, 21, 36, 57, 122, 104, 109, 161, 179, 175, 196, 226, 237, 242, 236, 289, 263, 252, 221, 264, 223, 260, 212, 213, 219, 209, 175, 154, 167, 133, 139, 129, 98, 118, 92, 72, 86, 38, 28, 16, 3, 0, 0, 0, 0, 0, 0, 0, 0, 0, 0, 0, 0, 0, 0, 0, 0, 0, 0, 0, 0, 0, 0, 0, 0, 0, 0, 0, 0, 0, 0, 0, 0, 0, 0, 0, 0, 0, 0, 0, 0, 0, 0, 0, 0, 0, 0, 0, 0, 0, 0, 0, 0, 0, 0, 0, 0, 0, 0, 0
0, 0, 22, 3, 2, 10, 15, 21, 50, 57, 109, 86, 137, 145, 164, 197, 216, 223, 223, 244, 209, 251, 251, 252, 251, 247, 233, 231, 244, 214, 213, 187, 185, 178, 152, 175, 145, 102, 123, 100, 98, 88, 65, 55, 42, 29, 0, 0, 0, 0, 0, 0, 0, 0, 0, 0, 0, 0, 0, 0, 0, 0, 0, 0, 0, 0, 0, 0, 0, 0, 0, 0, 0, 0, 0, 0, 0, 0, 0, 0, 0, 0, 0, 0, 0, 0, 0, 0, 0, 0, 0, 0, 0, 0, 0, 0, 0, 0, 0, 0, 0, 0, 0, 0, 0, 0
0, 0, 23, 2, 2, 7, 14, 24, 32, 46, 133, 89, 107, 159, 180, 198, 198, 224, 222, 232, 244, 261, 231, 284, 233, 247, 233, 215, 222, 221, 187, 207, 178, 173, 140, 140, 167, 119, 118, 100, 91, 96, 61, 51, 47, 22, 2, 0, 0, 0, 0, 0, 0, 0, 0, 0, 0, 0, 0, 0, 0, 0, 0, 0, 0, 0, 0, 0, 0, 0, 0, 0, 0, 0, 0, 0, 0, 0, 0, 0, 0, 0, 0, 0, 0, 0, 0, 0, 0, 0, 0, 0, 0, 0, 0, 0, 0, 0, 0, 0, 0, 0, 0, 0, 0, 0
0, 0, 24, 5, 4, 4, 18, 26, 31, 56, 103, 73, 106, 140, 172, 215, 220, 222, 210, 234, 281, 258, 232, 239, 220, 255, 234, 235, 219, 208, 208, 183, 199, 192, 176, 142, 109, 140, 119, 114, 95, 83, 78, 53, 39, 22, 1, 0, 0, 0, 0, 0, 0, 0, 0, 0, 0, 0, 0, 0, 0, 0, 0, 0, 0, 0, 0, 0, 0, 0, 0, 0, 0, 0, 0, 0, 0, 0, 0, 0, 0, 0, 0, 0, 0, 0, 0, 0, 0, 0, 0, 0, 0, 0, 0, 0, 0, 0, 0, 0, 0, 0, 0, 0, 0, 0
0, 0, 25, 2, 1, 4, 12, 23, 36, 39, 116, 101, 120, 123, 192, 171, 215, 201, 255, 263, 241, 268, 283, 251, 240, 248, 234, 231, 191, 192, 199, 192, 177, 178, 162, 164, 129, 122, 110, 112, 94, 86, 73, 63, 29, 18, 1, 0, 0, 0, 0, 0, 0, 0, 0, 0, 0, 0, 0, 0, 0, 0, 0, 0, 0, 0, 0, 0, 0, 0, 0, 0, 0, 0, 0, 0, 0, 0, 0, 0, 0, 0, 0, 0, 0, 0, 0, 0, 0, 0, 0, 0, 0, 0, 0, 0, 0, 0, 0, 0, 0, 0, 0, 0, 0, 0
0, 0, 26, 2, 2, 9, 14, 20, 38, 65, 118, 99, 115, 170, 171, 184, 222, 203, 218, 251, 230, 213, 234, 250, 253, 236, 251, 223, 200, 232, 196, 189, 184, 152, 161, 169, 142, 162, 113, 101, 95, 85, 70, 53, 43, 24, 0, 0, 0, 0, 0, 0, 0, 0, 0, 0, 0, 0, 0, 0, 0, 0, 0, 0, 0, 0, 0, 0, 0, 0, 0, 0, 0, 0, 0, 0, 0, 0, 0, 0, 0, 0, 0, 0, 0, 0, 0, 0, 0, 0, 0, 0, 0, 0, 0, 0, 0, 0, 0, 0, 0, 0, 0, 0, 0, 0
0, 0, 27, 2, 9, 11, 16, 18, 40, 54, 125, 105, 121, 155, 190, 211, 199, 200, 244, 268, 251, 217, 237, 237, 232, 251, 231, 235, 191, 206, 208, 201, 148, 166, 172, 151, 146, 121, 117, 130, 86, 93, 62, 52, 34, 24, 2, 0, 0, 0, 0, 0, 0, 0, 0, 0, 0, 0, 0, 0, 0, 0, 0, 0, 0, 0, 0, 0, 0, 0, 0, 0, 0, 0, 0, 0, 0, 0, 0, 0, 0, 0, 0, 0, 0, 0, 0, 0, 0, 0, 0, 0, 0, 0, 0, 0, 0, 0, 0, 0, 0, 0, 0, 0, 0, 0
0, 0, 28, 1, 7, 5, 20, 28, 41, 62, 108, 105, 103, 145, 171, 207, 166, 197, 214, 258, 247, 231, 236, 245, 247, 268, 231, 242, 217, 210, 210, 185, 187, 175, 189, 134, 144, 143, 128, 97, 110, 100, 68, 63, 39, 18, 0, 0, 0, 0, 0, 0, 0, 0, 0, 0, 0, 0, 0, 0, 0, 0, 0, 0, 0, 0, 0, 0, 0, 0, 0, 0, 0, 0, 0, 0, 0, 0, 0, 0, 0, 0, 0, 0, 0, 0, 0, 0, 0, 0, 0, 0, 0, 0, 0, 0, 0, 0, 0, 0, 0, 0, 0, 0, 0, 0
0, 0, 29, 5, 1, 14, 12, 20, 34, 55, 128, 88, 127, 127, 172, 193, 189, 229, 240, 224, 253, 239, 256, 245, 209, 255, 240, 231, 218, 198, 187, 166, 169, 179, 151, 152, 136, 121, 123, 106, 78, 86, 82, 58, 37, 17, 1, 0, 0, 0, 0, 0, 0, 0, 0, 0, 0, 0, 0, 0, 0, 0, 0, 0, 0, 0, 0, 0, 0, 0, 0, 0, 0, 0, 0, 0, 0, 0, 0, 0, 0, 0, 0, 0, 0, 0, 0, 0, 0, 0, 0, 0, 0, 0, 0, 0, 0, 0, 0, 0, 0, 0, 0, 0, 0, 0
0, 0, 30, 6, 4, 9, 14, 32, 38, 52, 115, 112, 110, 136, 176, 203, 219, 206, 245, 277, 241, 245, 242, 219, 257, 235, 262, 220, 219, 219, 183, 217, 171, 178, 151, 137, 127, 120, 138, 86, 96, 81, 70, 48, 48, 22, 1, 0, 0, 0, 0, 0, 0, 0, 0, 0, 0, 0, 0, 0, 0, 0, 0, 0, 0, 0, 0, 0, 0, 0, 0, 0, 0, 0, 0, 0, 0, 0, 0, 0, 0, 0, 0, 0, 0, 0, 0, 0, 0, 0, 0, 0, 0, 0, 0, 0, 0, 0, 0, 0, 0, 0, 0, 0, 0, 0
0, 0, 31, 4, 6, 8, 17, 28, 44, 59, 128, 103, 112, 139, 177, 206, 163, 196, 242, 261, 253, 227, 266, 234, 246, 252, 268, 218, 223, 213, 187, 192, 184, 149, 149, 141, 145, 126, 116, 96, 96, 93, 61, 39, 28, 19, 2, 0, 0, 0, 0, 0, 0, 0, 0, 0, 0, 0, 0, 0, 0, 0, 0, 0, 0, 0, 0, 0, 0, 0, 0, 0, 0, 0, 0, 0, 0, 0, 0, 0, 0, 0, 0, 0, 0, 0, 0, 0, 0, 0, 0, 0, 0, 0, 0, 0, 0, 0, 0, 0, 0, 0, 0, 0, 0, 0
0, 0, 32, 3, 2, 10, 19, 22, 55, 51, 122, 94, 108, 124, 164, 188, 227, 215, 234, 260, 266, 252, 254, 256, 276, 255, 222, 233, 225, 224, 207, 198, 177, 188, 160, 143, 173, 104, 106, 118, 103, 69, 71, 47, 44, 23, 0, 0, 0, 0, 0, 0, 0, 0, 0, 0, 0, 0, 0, 0, 0, 0, 0, 0, 0, 0, 0, 0, 0, 0, 0, 0, 0, 0, 0, 0, 0, 0, 0, 0, 0, 0, 0, 0, 0, 0, 0, 0, 0, 0, 0, 0, 0, 0, 0, 0, 0, 0, 0, 0, 0, 0, 0, 0, 0, 0
0, 0, 33, 7, 10, 4, 7, 22, 41, 59, 130, 87, 94, 148, 157, 180, 184, 196, 253, 245, 239, 239, 244, 285, 247, 228, 225, 238, 215, 228, 204, 159, 182, 164, 150, 157, 153, 131, 101, 112, 64, 96, 56, 55, 33, 32, 2, 0, 0, 0, 0, 0, 0, 0, 0, 0, 0, 0, 0, 0, 0, 0, 0, 0, 0, 0, 0, 0, 0, 0, 0, 0, 0, 0, 0, 0, 0, 0, 0, 0, 0, 0, 0, 0, 0, 0, 0, 0, 0, 0, 0, 0, 0, 0, 0, 0, 0, 0, 0, 0, 0, 0, 0, 0, 0, 0
0, 0, 34, 0, 1, 5, 16, 17, 46, 62, 144, 93, 133, 141, 181, 199, 211, 239, 244, 267, 244, 267, 279, 281, 229, 247, 245, 234, 204, 186, 196, 175, 163, 146, 154, 112, 131, 113, 112, 107, 78, 76, 58, 52, 48, 18, 0, 0, 0, 0, 0, 0, 0, 0, 0, 0, 0, 0, 0, 0, 0, 0, 0, 0, 0, 0, 0, 0, 0, 0, 0, 0, 0, 0, 0, 0, 0, 0, 0, 0, 0, 0, 0, 0, 0, 0, 0, 0, 0, 0, 0, 0, 0, 0, 0, 0, 0, 0, 0, 0, 0, 0, 0, 0, 0, 0
0, 0, 35, 4, 3, 3, 19, 24, 37, 55, 124, 85, 122, 138, 138, 194, 217, 202, 224, 256, 276, 270, 268, 258, 268, 235, 236, 235, 230, 188, 190, 200, 180, 162, 142, 138, 129, 104, 123, 102, 92, 77, 70, 74, 34, 24, 0, 0, 0, 0, 0, 0, 0, 0, 0, 0, 0, 0, 0, 0, 0, 0, 0, 0, 0, 0, 0, 0, 0, 0, 0, 0, 0, 0, 0, 0, 0, 0, 0, 0, 0, 0, 0, 0, 0, 0, 0, 0, 0, 0, 0, 0, 0, 0, 0, 0, 0, 0, 0, 0, 0, 0, 0, 0, 0, 0
0, 0, 36, 2, 5, 6, 15, 21, 36, 57, 126, 102, 119, 147, 193, 206, 227, 229, 245, 247, 273, 259, 251, 224, 240, 228, 254, 239, 234, 196, 176, 183, 195, 146, 152, 126, 130, 110, 97, 109, 104, 76, 65, 38, 42, 21, 1, 0, 0, 0, 0, 0, 0, 0, 0, 0, 0, 0, 0, 0, 0, 0, 0, 0, 0, 0, 0, 0, 0, 0, 0, 0, 0, 0, 0, 0, 0, 0, 0, 0, 0, 0, 0, 0, 0, 0, 0, 0, 0, 0, 0, 0, 0, 0, 0, 0, 0, 0, 0, 0, 0, 0, 0, 0, 0, 0
0, 0, 37, 1, 3, 5, 10, 20, 52, 56, 117, 101, 133, 160, 171, 195, 197, 224, 242, 231, 225, 256, 267, 224, 261, 247, 256, 231, 226, 208, 210, 178, 181, 165, 156, 142, 155, 114, 105, 106, 80, 57, 73, 77, 45, 20, 1, 0, 0, 0, 0, 0, 0, 0, 0, 0, 0, 0, 0, 0, 0, 0, 0, 0, 0, 0, 0, 0, 0, 0, 0, 0, 0, 0, 0, 0, 0, 0, 0, 0, 0, 0, 0, 0, 0, 0, 0, 0, 0, 0, 0, 0, 0, 0, 0, 0, 0, 0, 0, 0, 0, 0, 0, 0, 0, 0
0, 0, 38, 2, 3, 5, 17, 16, 39, 62, 109, 88, 118, 139, 169, 202, 178, 207, 207, 251, 279, 262, 237, 243, 209, 219, 267, 214, 230, 204, 211, 173, 177, 183, 156, 131, 132, 145, 136, 113, 87, 77, 72, 43, 38, 21, 2, 0, 0, 0, 0, 0, 0, 0, 0, 0, 0, 0, 0, 0, 0, 0, 0, 0, 0, 0, 0, 0, 0, 0, 0, 0, 0, 0, 0, 0, 0, 0, 0, 0, 0, 0, 0, 0, 0, 0, 0, 0, 0, 0, 0, 0, 0, 0, 0, 0, 0, 0, 0, 0, 0, 0, 0, 0, 0, 0
0, 0, 39, 8, 2, 11, 18, 29, 39, 41, 110, 95, 126, 146, 181, 195, 218, 234, 225, 241, 226, 244, 229, 215, 222, 223, 232, 203, 207, 212, 234, 193, 191, 179, 150, 145, 153, 122, 119, 87, 99, 83, 63, 57, 40, 26, 0, 0, 0, 0, 0, 0, 0, 0, 0, 0, 0, 0, 0, 0, 0, 0, 0, 0, 0, 0, 0, 0, 0, 0, 0, 0, 0, 0, 0, 0, 0, 0, 0, 0, 0, 0, 0, 0, 0, 0, 0, 0, 0, 0, 0, 0, 0, 0, 0, 0, 0, 0, 0, 0, 0, 0, 0, 0, 0, 0
0, 0, 40, 0, 3, 6, 15, 25, 40, 49, 117, 76, 131, 130, 179, 215, 179, 185, 208, 232, 238, 254, 265, 227, 231, 229, 249, 213, 218, 203, 189, 184, 159, 177, 159, 144, 155, 128, 107, 110, 70, 98, 74, 64, 25, 15, 1, 0, 0, 0, 0, 0, 0, 0, 0, 0, 0, 0, 0, 0, 0, 0, 0, 0, 0, 0, 0, 0, 0, 0, 0, 0, 0, 0, 0, 0, 0, 0, 0, 0, 0, 0, 0, 0, 0, 0, 0, 0, 0, 0, 0, 0, 0, 0, 0, 0, 0, 0, 0, 0, 0, 0, 0, 0, 0, 0
0, 0, 41, 2, 2, 13, 16, 23, 31, 61, 115, 105, 107, 133, 160, 187, 189, 228, 236, 225, 213, 238, 254, 229, 231, 196, 222, 201, 198, 206, 174, 174, 165, 165, 171, 125, 144, 139, 127, 89, 80, 75, 73, 52, 38, 23, 1, 0, 0, 0, 0, 0, 0, 0, 0, 0, 0, 0, 0, 0, 0, 0, 0, 0, 0, 0, 0, 0, 0, 0, 0, 0, 0, 0, 0, 0, 0, 0, 0, 0, 0, 0, 0, 0, 0, 0, 0, 0, 0, 0, 0, 0, 0, 0, 0, 0, 0, 0, 0, 0, 0, 0, 0, 0, 0, 0
0, 0, 42, 2, 1, 6, 11, 14, 33, 35, 85, 73, 70, 128, 140, 162, 149, 146, 173, 188, 176, 216, 195, 215, 160, 185, 178, 182, 159, 162, 156, 152, 128, 150, 122, 82, 105, 86, 101, 79, 82, 65, 56, 36, 35, 16, 0, 0, 0, 0, 0, 0, 0, 0, 0, 0, 0, 0, 0, 0, 0, 0, 0, 0, 0, 0, 0, 0, 0, 0, 0, 0, 0, 0, 0, 0, 0, 0, 0, 0, 0, 0, 0, 0, 0, 0, 0, 0, 0, 0, 0, 0, 0, 0, 0, 0, 0, 0, 0, 0, 0, 0, 0, 0, 0, 0
0, 0, 43, 3, 3, 3, 6, 18, 17, 32, 72, 46, 63, 85, 88, 126, 115, 146, 130, 143, 175, 154, 177, 133, 137, 143, 143, 124, 150, 125, 110, 143, 104, 100, 123, 92, 83, 83, 70, 78, 67, 50, 40, 40, 23, 15, 0, 0, 0, 0, 0, 0, 0, 0, 0, 0, 0, 0, 0, 0, 0, 0, 0, 0, 0, 0, 0, 0, 0, 0, 0, 0, 0, 0, 0, 0, 0, 0, 0, 0, 0, 0, 0, 0, 0, 0, 0, 0, 0, 0, 0, 0, 0, 0, 0, 0, 0, 0, 0, 0, 0, 0, 0, 0, 0, 0
0, 0, 44, 2, 3, 3, 5, 12, 17, 27, 64, 31, 55, 55, 90, 90, 90, 61, 123, 124, 122, 128, 133, 110, 108, 128, 119, 88, 134, 103, 115, 110, 91, 80, 84, 90, 62, 70, 53, 54, 51, 42, 39, 33, 23, 12, 0, 0, 0, 0, 0, 0, 0, 0, 0, 0, 0, 0, 0, 0, 0, 0, 0, 0, 0, 0, 0, 0, 0, 0, 0, 0, 0, 0, 0, 0, 0, 0, 0, 0, 0, 0, 0, 0, 0, 0, 0, 0, 0, 0, 0, 0, 0, 0, 0, 0, 0, 0, 0, 0, 0, 0, 0, 0, 0, 0
0, 0, 45, 0, 0, 1, 8, 8, 12, 14, 37, 27, 33, 47, 60, 71, 76, 74, 54, 75, 94, 105, 106, 103, 118, 105, 98, 94, 85, 96, 93, 90, 101, 63, 89, 67, 61, 67, 37, 52, 39, 38, 30, 31, 26, 7, 1, 0, 0, 0, 0, 0, 0, 0, 0, 0, 0, 0, 0, 0, 0, 0, 0, 0, 0, 0, 0, 0, 0, 0, 0, 0, 0, 0, 0, 0, 0, 0, 0, 0, 0, 0, 0, 0, 0, 0, 0, 0, 0, 0, 0, 0, 0, 0, 0, 0, 0, 0, 0, 0, 0, 0, 0, 0, 0, 0
0, 0, 46, 0, 0, 2, 2, 6, 4, 7, 19, 18, 23, 23, 43, 30, 54, 39, 65, 69, 75, 76, 67, 80, 65, 94, 74, 78, 71, 63, 70, 81, 56, 64, 63, 50, 41, 45, 59, 51, 38, 19, 22, 26, 12, 6, 0, 0, 0, 0, 0, 0, 0, 0, 0, 0, 0, 0, 0, 0, 0, 0, 0, 0, 0, 0, 0, 0, 0, 0, 0, 0, 0, 0, 0, 0, 0, 0, 0, 0, 0, 0, 0, 0, 0, 0, 0, 0, 0, 0, 0, 0, 0, 0, 0, 0, 0, 0, 0, 0, 0, 0, 0, 0, 0, 0
0, 0, 47, 0, 1, 0, 0, 2, 4, 4, 16, 12, 13, 20, 32, 36, 36, 36, 55, 49, 51, 70, 68, 66, 72, 59, 69, 48, 64, 65, 65, 64, 45, 38, 53, 39, 50, 42, 42, 44, 34, 27, 18, 17, 14, 6, 0, 0, 0, 0, 0, 0, 0, 0, 0, 0, 0, 0, 0, 0, 0, 0, 0, 0, 0, 0, 0, 0, 0, 0, 0, 0, 0, 0, 0, 0, 0, 0, 0, 0, 0, 0, 0, 0, 0, 0, 0, 0, 0, 0, 0, 0, 0, 0, 0, 0, 0, 0, 0, 0, 0, 0, 0, 0, 0, 0
0, 0, 48, 0, 0, 0, 2, 0, 0, 3, 13, 5, 8, 14, 19, 24, 28, 30, 36, 33, 53, 43, 60, 57, 60, 62, 58, 54, 61, 48, 53, 43, 39, 39, 54, 33, 42, 33, 32, 30, 28, 28, 28, 17, 20, 5, 0, 0, 0, 0, 0, 0, 0, 0, 0, 0, 0, 0, 0, 0, 0, 0, 0, 0, 0, 0, 0, 0, 0, 0, 0, 0, 0, 0, 0, 0, 0, 0, 0, 0, 0, 0, 0, 0, 0, 0, 0, 0, 0, 0, 0, 0, 0, 0, 0, 0, 0, 0, 0, 0, 0, 0, 0, 0, 0, 0
0, 0, 49, 0, 0, 0, 0, 1, 2, 2, 11, 7, 8, 9, 15, 25, 14, 30, 33, 50, 35, 46, 59, 54, 57, 49, 49, 52, 65, 54, 46, 39, 47, 42, 39, 34, 41, 43, 31, 34, 38, 25, 18, 16, 5, 7, 1, 0, 0, 0, 0, 0, 0, 0, 0, 0, 0, 0, 0, 0, 0, 0, 0, 0, 0, 0, 0, 0, 0, 0, 0, 0, 0, 0, 0, 0, 0, 0, 0, 0, 0, 0, 0, 0, 0, 0, 0, 0, 0, 0, 0, 0, 0, 0, 0, 0, 0, 0, 0, 0, 0, 0, 0, 0, 0, 0
0, 0, 50, 0, 0, 0, 0, 1, 0, 0, 12, 5, 9, 9, 16, 20, 21, 21, 29, 38, 34, 36, 38, 47, 55, 48, 31, 60, 45, 45, 64, 39, 50, 48, 30, 36, 38, 36, 33, 30, 40, 22, 15, 14, 7, 9, 0, 0, 0, 0, 0, 0, 0, 0, 0, 0, 0, 0, 0, 0, 0, 0, 0, 0, 0, 0, 0, 0, 0, 0, 0, 0, 0, 0, 0, 0, 0, 0, 0, 0, 0, 0, 0, 0, 0, 0, 0, 0, 0, 0, 0, 0, 0, 0, 0, 0, 0, 0, 0, 0, 0, 0, 0, 0, 0, 0
0, 0, 51, 2, 0, 0, 1, 1, 2, 2, 14, 7, 13, 15, 16, 33, 26, 43, 36, 35, 52, 47, 49, 58, 44, 54, 59, 44, 39, 58, 38, 48, 50, 31, 48, 47, 37, 35, 34, 21, 26, 22, 27, 22, 15, 6, 0, 0, 0, 0, 0, 0, 0, 0, 0, 0, 0, 0, 0, 0, 0, 0, 0, 0, 0, 0, 0, 0, 0, 0, 0, 0, 0, 0, 0, 0, 0, 0, 0, 0, 0, 0, 0, 0, 0, 0, 0, 0, 0, 0, 0, 0, 0, 0, 0, 0, 0, 0, 0, 0, 0, 0, 0, 0, 0, 0
0, 0, 52, 0, 0, 0, 2, 5, 5, 2, 21, 17, 13, 15, 17, 40, 38, 29, 43, 67, 56, 60, 53, 63, 56, 70, 44, 60, 44, 58, 60, 59, 53, 68, 55, 44, 32, 42, 37, 42, 22, 22, 26, 20, 16, 10, 0, 0, 0, 0, 0, 0, 0, 0, 0, 0, 0, 0, 0, 0, 0, 0, 0, 0, 0, 0, 0, 0, 0, 0, 0, 0, 0, 0, 0, 0, 0, 0, 0, 0, 0, 0, 0, 0, 0, 0, 0, 0, 0, 0, 0, 0, 0, 0, 0, 0, 0, 0, 0, 0, 0, 0, 0, 0, 0, 0
0, 0, 53, 0, 1, 1, 4, 5, 10, 12, 25, 15, 18, 33, 45, 54, 44, 64, 51, 72, 81, 75, 58, 76, 64, 72, 87, 83, 75, 77, 78, 82, 61, 70, 58, 40, 52, 30, 36, 33, 30, 32, 28, 27, 11, 10, 1, 0, 0, 0, 0, 0, 0, 0, 0, 0, 0, 0, 0, 0, 0, 0, 0, 0, 0, 0, 0, 0, 0, 0, 0, 0, 0, 0, 0, 0, 0, 0, 0, 0, 0, 0, 0, 0, 0, 0, 0, 0, 0, 0, 0, 0, 0, 0, 0, 0, 0, 0, 0, 0, 0, 0, 0, 0, 0, 0
0, 0, 54, 1, 0, 1, 1, 9, 13, 9, 28, 22, 36, 43, 73, 75, 70, 67, 77, 87, 94, 83, 95, 100, 96, 108, 89, 97, 85, 85, 99, 72, 67, 70, 86, 57, 77, 49, 59, 42, 57, 50, 27, 13, 22, 7, 1, 0, 0, 0, 0, 0, 0, 0, 0, 0, 0, 0, 0, 0, 0, 0, 0, 0, 0, 0, 0, 0, 0, 0, 0, 0, 0, 0, 0, 0, 0, 0, 0, 0, 0, 0, 0, 0, 0, 0, 0, 0, 0, 0, 0, 0, 0, 0, 0, 0, 0, 0, 0, 0, 0, 0, 0, 0, 0, 0
0, 0, 55, 1, 5, 3, 6, 20, 11, 23, 52, 32, 52, 66, 74, 86, 79, 89, 100, 123, 108, 113, 138, 125, 112, 115, 91, 109, 106, 103, 101, 91, 87, 104, 61, 76, 81, 58, 62, 49, 44, 32, 49, 28, 30, 14, 2, 0, 0, 0, 0, 0, 0, 0, 0, 0, 0, 0, 0, 0, 0, 0, 0, 0, 0, 0, 0, 0, 0, 0, 0, 0, 0, 0, 0, 0, 0, 0, 0, 0, 0, 0, 0, 0, 0, 0, 0, 0, 0, 0, 0, 0, 0, 0, 0, 0, 0, 0, 0, 0, 0, 0, 0, 0, 0, 0
0, 0, 56, 0, 1, 2, 8, 16, 26, 35, 73, 54, 66, 105, 104, 109, 110, 136, 122, 159, 165, 150, 134, 131, 150, 159, 146, 155, 145, 113, 115, 112, 110, 112, 83, 104, 89, 72, 86, 53, 60, 48, 44, 31, 29, 11, 0, 0, 0, 0, 0, 0, 0, 0, 0, 0, 0, 0, 0, 0, 0, 0, 0, 0, 0, 0, 0, 0, 0, 0, 0, 0, 0, 0, 0, 0, 0, 0, 0, 0, 0, 0, 0, 0, 0, 0, 0, 0, 0, 0, 0, 0, 0, 0, 0, 0, 0, 0, 0, 0, 0, 0, 0, 0, 0, 0
0, 0, 57, 0, 2, 8, 12, 20, 33, 44, 81, 70, 68, 117, 140, 165, 143, 145, 171, 160, 164, 205, 172, 197, 218, 163, 167, 194, 158, 187, 172, 135, 138, 121, 139, 136, 115, 95, 100, 80, 68, 73, 57, 35, 33, 15, 0, 0, 0, 0, 0, 0, 0, 0, 0, 0, 0, 0, 0, 0, 0, 0, 0, 0, 0, 0, 0, 0, 0, 0, 0, 0, 0, 0, 0, 0, 0, 0, 0, 0, 0, 0, 0, 0, 0, 0, 0, 0, 0, 0, 0, 0, 0, 0, 0, 0, 0, 0, 0, 0, 0, 0, 0, 0, 0, 0
0, 0, 58, 0, 2, 7, 13, 19, 38, 51, 81, 85, 116, 135, 151, 185, 189, 179, 199, 246, 207, 200, 222, 226, 246, 237, 197, 232, 200, 177, 149, 155, 162, 155, 158, 129, 138, 108, 108, 91, 89, 67, 61, 42, 33, 17, 0, 0, 0, 0, 0, 0, 0, 0, 0, 0, 0, 0, 0, 0, 0, 0, 0, 0, 0, 0, 0, 0, 0, 0, 0, 0, 0, 0, 0, 0, 0, 0, 0, 0, 0, 0, 0, 0, 0, 0, 0, 0, 0, 0, 0, 0, 0, 0, 0, 0, 0, 0, 0, 0, 0, 0, 0, 0, 0, 0
0, 0, 59, 0, 2, 9, 15, 21, 35, 61, 95, 95, 114, 126, 170, 181, 197, 214, 216, 230, 248, 267, 262, 266, 225, 251, 223, 216, 249, 227, 213, 211, 178, 175, 130, 140, 131, 127, 137, 104, 111, 84, 62, 52, 40, 16, 2, 0, 0, 0, 0, 0, 0, 0, 0, 0, 0, 0, 0, 0, 0, 0, 0, 0, 0, 0, 0, 0, 0, 0, 0, 0, 0, 0, 0, 0, 0, 0, 0, 0, 0, 0, 0, 0, 0, 0, 0, 0, 0, 0, 0, 0, 0, 0, 0, 0, 0, 0, 0, 0, 0, 0, 0, 0, 0, 0
0, 0, 60, 2, 4, 9, 15, 23, 41, 49, 126, 101, 119, 138, 188, 188, 196, 192, 237, 229, 249, 243, 255, 272, 232, 266, 221, 219, 201, 216, 212, 203, 178, 180, 140, 162, 115, 167, 107, 102, 77, 89, 74, 64, 34, 17, 1, 0, 0, 0, 0, 0, 0, 0, 0, 0, 0, 0, 0, 0, 0, 0, 0, 0, 0, 0, 0, 0, 0, 0, 0, 0, 0, 0, 0, 0, 0, 0, 0, 0, 0, 0, 0, 0, 0, 0, 0, 0, 0, 0, 0, 0, 0, 0, 0, 0, 0, 0, 0, 0, 0, 0, 0, 0, 0, 0
0, 0, 61, 3, 3, 6, 17, 25, 54, 44, 106, 86, 125, 159, 196, 208, 215, 209, 232, 239, 260, 251, 211, 239, 247, 240, 198, 206, 204, 224, 209, 194, 159, 181, 153, 132, 147, 137, 106, 129, 83, 70, 77, 66, 44, 20, 2, 0, 0, 0, 0, 0, 0, 0, 0, 0, 0, 0, 0, 0, 0, 0, 0, 0, 0, 0, 0, 0, 0, 0, 0, 0, 0, 0, 0, 0, 0, 0, 0, 0, 0, 0, 0, 0, 0, 0, 0, 0, 0, 0, 0, 0, 0, 0, 0, 0, 0, 0, 0, 0, 0, 0, 0, 0, 0, 0
0, 0, 62, 7, 2, 4, 19, 25, 40, 48, 120, 90, 122, 153, 202, 185, 200, 192, 233, 233, 249, 264, 247, 247, 272, 233, 239, 227, 197, 205, 192, 184, 193, 160, 172, 134, 172, 142, 103, 107, 91, 87, 51, 53, 33, 27, 1, 0, 0, 0, 0, 0, 0, 0, 0, 0, 0, 0, 0, 0, 0, 0, 0, 0, 0, 0, 0, 0, 0, 0, 0, 0, 0, 0, 0, 0, 0, 0, 0, 0, 0, 0, 0, 0, 0, 0, 0, 0, 0, 0, 0, 0, 0, 0, 0, 0, 0, 0, 0, 0, 0, 0, 0, 0, 0, 0
0, 0, 63, 3, 3, 6, 18, 20, 50, 56, 119, 92, 132, 145, 179, 185, 213, 214, 217, 229, 274, 261, 221, 270, 269, 229, 218, 209, 238, 217, 200, 177, 189, 182, 163, 126, 128, 121, 115, 94, 109, 79, 59, 59, 33, 21, 1, 0, 0, 0, 0, 0, 0, 0, 0, 0, 0, 0, 0, 0, 0, 0, 0, 0, 0, 0, 0, 0, 0, 0, 0, 0, 0, 0, 0, 0, 0, 0, 0, 0, 0, 0, 0, 0, 0, 0, 0, 0, 0, 0, 0, 0, 0, 0, 0, 0, 0, 0, 0, 0, 0, 0, 0, 0, 0, 0
0, 0, 64, 2, 6, 6, 16, 23, 47, 61, 106, 94, 128, 149, 201, 229, 210, 195, 231, 243, 240, 265, 276, 248, 252, 241, 220, 210, 242, 216, 205, 161, 193, 180, 136, 145, 167, 119, 138, 110, 87, 73, 87, 62, 40, 20, 0, 0, 0, 0, 0, 0, 0, 0, 0, 0, 0, 0, 0, 0, 0, 0, 0, 0, 0, 0, 0, 0, 0, 0, 0, 0, 0, 0, 0, 0, 0, 0, 0, 0, 0, 0, 0, 0, 0, 0, 0, 0, 0, 0, 0, 0, 0, 0, 0, 0, 0, 0, 0, 0, 0, 0, 0, 0, 0, 0
0, 0, 65, 2, 6, 7, 15, 31, 37, 56, 145, 104, 117, 139, 181, 198, 188, 198, 223, 214, 276, 220, 226, 259, 217, 246, 235, 226, 243, 212, 183, 166, 209, 167, 165, 152, 141, 137, 112, 112, 61, 83, 59, 57, 36, 18, 3, 0, 0, 0, 0, 0, 0, 0, 0, 0, 0, 0, 0, 0, 0, 0, 0, 0, 0, 0, 0, 0, 0, 0, 0, 0, 0, 0, 0, 0, 0, 0, 0, 0, 0, 0, 0, 0, 0, 0, 0, 0, 0, 0, 0, 0, 0, 0, 0, 0, 0, 0, 0, 0, 0, 0, 0, 0, 0, 0
0, 0, 66, 5, 1, 6, 15, 34, 48, 59, 121, 102, 121, 156, 154, 190, 203, 182, 235, 239, 258, 269, 234, 242, 267, 235, 261, 201, 196, 172, 165, 189, 177, 167, 158, 153, 131, 128, 112, 116, 108, 74, 64, 62, 50, 18, 1, 0, 0, 0, 0, 0, 0, 0, 0, 0, 0, 0, 0, 0, 0, 0, 0, 0, 0, 0, 0, 0, 0, 0, 0, 0, 0, 0, 0, 0, 0, 0, 0, 0, 0, 0, 0, 0, 0, 0, 0, 0, 0, 0, 0, 0, 0, 0, 0, 0, 0, 0, 0, 0, 0, 0, 0, 0, 0, 0
0, 0, 67, 2, 5, 11, 11, 32, 49, 52, 122, 92, 109, 130, 185, 202, 201, 184, 246, 252, 258, 282, 232, 236, 252, 215, 205, 225, 198, 217, 189, 160, 182, 182, 163, 151, 132, 136, 121, 99, 106, 96, 60, 63, 45, 16, 3, 0, 0, 0, 0, 0, 0, 0, 0, 0, 0, 0, 0, 0, 0, 0, 0, 0, 0, 0, 0, 0, 0, 0, 0, 0, 0, 0, 0, 0, 0, 0, 0, 0, 0, 0, 0, 0, 0, 0, 0, 0, 0, 0, 0, 0, 0, 0, 0, 0, 0, 0, 0, 0, 0, 0, 0, 0, 0, 0
0, 0, 68, 1, 2, 10, 10, 24, 37, 52, 132, 108, 118, 144, 185, 187, 211, 192, 233, 258, 263, 248, 249, 237, 222, 234, 255, 262, 222, 172, 183, 197, 176, 165, 159, 169, 145, 109, 132, 97, 96, 56, 76, 54, 54, 22, 3, 0, 0, 0, 0, 0, 0, 0, 0, 0, 0, 0, 0, 0, 0, 0, 0, 0, 0, 0, 0, 0, 0, 0, 0, 0, 0, 0, 0, 0, 0, 0, 0, 0, 0, 0, 0, 0, 0, 0, 0, 0, 0, 0, 0, 0, 0, 0, 0, 0, 0, 0, 0, 0, 0, 0, 0, 0, 0, 0
0, 0, 69, 2, 1, 9, 13, 22, 36, 44, 130, 93, 124, 152, 175, 221, 208, 248, 238, 210, 238, 228, 230, 262, 268, 251, 234, 243, 203, 210, 166, 180, 162, 180, 161, 139, 122, 137, 99, 105, 88, 70, 69, 61, 45, 21, 1, 0, 0, 0, 0, 0, 0, 0, 0, 0, 0, 0, 0, 0, 0, 0, 0, 0, 0, 0, 0, 0, 0, 0, 0, 0, 0, 0, 0, 0, 0, 0, 0, 0, 0, 0, 0, 0, 0, 0, 0, 0, 0, 0, 0, 0, 0, 0, 0, 0, 0, 0, 0, 0, 0, 0, 0, 0, 0, 0
0, 0, 70, 3, 2, 10, 22, 25, 37, 70, 129, 108, 112, 155, 145, 174, 182, 238, 244, 216, 276, 255, 219, 261, 244, 233, 225, 216, 209, 180, 224, 187, 153, 161, 162, 141, 128, 135, 105, 99, 79, 84, 57, 61, 51, 20, 2, 0, 0, 0, 0, 0, 0, 0, 0, 0, 0, 0, 0, 0, 0, 0, 0, 0, 0, 0, 0, 0, 0, 0, 0, 0, 0, 0, 0, 0, 0, 0, 0, 0, 0, 0, 0, 0, 0, 0, 0, 0, 0, 0, 0, 0, 0, 0, 0, 0, 0, 0, 0, 0, 0, 0, 0, 0, 0, 0
0, 0, 71, 2, 4, 7, 16, 23, 34, 81, 115, 100, 132, 126, 164, 222, 184, 210, 209, 240, 259, 234, 214, 238, 247, 256, 220, 229, 246, 222, 220, 203, 173, 168, 156, 155, 158, 126, 106, 116, 99, 78, 49, 51, 35, 19, 6, 0, 0, 0, 0, 0, 0, 0, 0, 0, 0, 0, 0, 0, 0, 0, 0, 0, 0, 0, 0, 0, 0, 0, 0, 0, 0, 0, 0, 0, 0, 0, 0, 0, 0, 0, 0, 0, 0, 0, 0, 0, 0, 0, 0, 0, 0, 0, 0, 0, 0, 0, 0, 0, 0, 0, 0, 0, 0, 0
0, 0, 72, 5, 1, 7, 15, 29, 48, 58, 118, 73, 112, 140, 185, 213, 199, 209, 203, 264, 265, 221, 254, 268, 250, 242, 222, 217, 235, 200, 205, 180, 172, 173, 154, 136, 131, 130, 111, 109, 93, 67, 72, 62, 58, 22, 2, 0, 0, 0, 0, 0, 0, 0, 0, 0, 0, 0, 0, 0, 0, 0, 0, 0, 0, 0, 0, 0, 0, 0, 0, 0, 0, 0, 0, 0, 0, 0, 0, 0, 0, 0, 0, 0, 0, 0, 0, 0, 0, 0, 0, 0, 0, 0, 0, 0, 0, 0, 0, 0, 0, 0, 0, 0, 0, 0
0, 0, 73, 5, 3, 5, 9, 23, 40, 55, 111, 86, 97, 139, 136, 202, 190, 220, 233, 241, 249, 258, 230, 225, 251, 247, 245, 242, 229, 209, 210, 195, 170, 175, 168, 144, 135, 134, 116, 102, 75, 68, 66, 57, 34, 13, 1, 0, 0, 0, 0, 0, 0, 0, 0, 0, 0, 0, 0, 0, 0, 0, 0, 0, 0, 0, 0, 0, 0, 0, 0, 0, 0, 0, 0, 0, 0, 0, 0, 0, 0, 0, 0, 0, 0, 0, 0, 0, 0, 0, 0, 0, 0, 0, 0, 0, 0, 0, 0, 0, 0, 0, 0, 0, 0, 0
0, 0, 74, 2, 4, 5, 16, 20, 42, 54, 108, 97, 118, 148, 175, 200, 200, 223, 241, 245, 242, 237, 262, 238, 245, 233, 242, 256, 239, 224, 198, 207, 163, 139, 130, 147, 127, 118, 104, 74, 97, 71, 60, 64, 55, 19, 1, 0, 0, 0, 0, 0, 0, 0, 0, 0, 0, 0, 0, 0, 0, 0, 0, 0, 0, 0, 0, 0, 0, 0, 0, 0, 0, 0, 0, 0, 0, 0, 0, 0, 0, 0, 0, 0, 0, 0, 0, 0, 0, 0, 0, 0, 0, 0, 0, 0, 0, 0, 0, 0, 0, 0, 0, 0, 0, 0
0, 0, 75, 2, 5, 6, 12, 20, 33, 72, 109, 95, 105, 138, 176, 197, 200, 209, 242, 251, 252, 281, 266, 252, 233, 270, 242, 208, 224, 224, 196, 179, 177, 170, 159, 138, 154, 123, 114, 106, 92, 75, 68, 58, 48, 22, 0, 0, 0, 0, 0, 0, 0, 0, 0, 0, 0, 0, 0, 0, 0, 0, 0, 0, 0, 0, 0, 0, 0, 0, 0, 0, 0, 0, 0, 0, 0, 0, 0, 0, 0, 0, 0, 0, 0, 0, 0, 0, 0, 0, 0, 0, 0, 0, 0, 0, 0, 0, 0, 0, 0, 0, 0, 0, 0, 0
0, 0, 76, 1, 0, 7, 12, 32, 48, 66, 133, 91, 113, 133, 181, 181, 206, 198, 238, 234, 235, 245, 241, 236, 247, 247, 245, 218, 225, 219, 191, 200, 180, 182, 175, 139, 166, 135, 118, 112, 108, 84, 83, 47, 42, 21, 1, 0, 0, 0, 0, 0, 0, 0, 0, 0, 0, 0, 0, 0, 0, 0, 0, 0, 0, 0, 0, 0, 0, 0, 0, 0, 0, 0, 0, 0, 0, 0, 0, 0, 0, 0, 0, 0, 0, 0, 0, 0, 0, 0, 0, 0, 0, 0, 0, 0, 0, 0, 0, 0, 0, 0, 0, 0, 0, 0
0, 0, 77, 3, 5, 11, 15, 32, 46, 62, 118, 96, 116, 139, 178, 170, 220, 214, 221, 203, 249, 223, 263, 220, 232, 256, 227, 239, 211, 213, 203, 188, 188, 163, 170, 184, 156, 128, 115, 108, 79, 71, 56, 58, 45, 19, 2, 0, 0, 0, 0, 0, 0, 0, 0, 0, 0, 0, 0, 0, 0, 0, 0, 0, 0, 0, 0, 0, 0, 0, 0, 0, 0, 0, 0, 0, 0, 0, 0, 0, 0, 0, 0, 0, 0, 0, 0, 0, 0, 0, 0, 0, 0, 0, 0, 0, 0, 0, 0, 0, 0, 0, 0, 0, 0, 0
