# TOPAS Version: 3.1.p3
# Parameter File: REDLEN_small_phantom_mc_basic_4cm.txt
# Results for scorer PhantomDose
# Scored on surface: CdTeCrystal1/YPlusSurface
# X in 100 bins of 0.03332 cm
# Y in 1 bin  of 0.4 cm
# Z in 100 bins of 0.0375 cm
# SurfaceTrackCount : Sum   
# Binned by incident track energy in 100 bins of 0.00104 MeV from 0.016 MeV to 0.12 MeV
# First bin is underflow, next to last bin is overflow, last bin is for case of no incident track.
0, 0, 0, 0, 0, 0, 0, 0, 0, 0, 1, 0, 1, 0, 3, 1, 2, 5, 1, 7, 2, 4, 1, 2, 2, 5, 2, 0, 2, 1, 3, 1, 0, 2, 1, 3, 0, 0, 1, 1, 0, 2, 0, 2, 0, 0, 0, 0, 0, 0, 0, 0, 0, 0, 0, 0, 0, 0, 0, 0, 0, 0, 0, 0, 0, 0, 0, 0, 0, 0, 0, 0, 0, 0, 0, 0, 0, 0, 0, 0, 0, 0, 0, 0, 0, 0, 0, 0, 0, 0, 0, 0, 0, 0, 0, 0, 0, 0, 0, 0, 0, 0, 0, 0, 0, 0
0, 0, 1, 1, 0, 0, 0, 0, 0, 0, 0, 2, 3, 0, 3, 2, 2, 1, 1, 1, 4, 5, 3, 3, 2, 1, 1, 0, 1, 0, 1, 2, 5, 1, 2, 1, 0, 1, 0, 3, 2, 2, 1, 0, 0, 0, 0, 0, 0, 0, 0, 0, 0, 0, 0, 0, 0, 0, 0, 0, 0, 0, 0, 0, 0, 0, 0, 0, 0, 0, 0, 0, 0, 0, 0, 0, 0, 0, 0, 0, 0, 0, 0, 0, 0, 0, 0, 0, 0, 0, 0, 0, 0, 0, 0, 0, 0, 0, 0, 0, 0, 0, 0, 0, 0, 0
0, 0, 2, 0, 0, 0, 0, 0, 0, 1, 0, 0, 0, 0, 2, 0, 1, 0, 1, 1, 0, 1, 1, 0, 4, 2, 3, 2, 4, 0, 0, 4, 1, 6, 0, 1, 0, 1, 4, 1, 0, 0, 1, 0, 1, 0, 0, 0, 0, 0, 0, 0, 0, 0, 0, 0, 0, 0, 0, 0, 0, 0, 0, 0, 0, 0, 0, 0, 0, 0, 0, 0, 0, 0, 0, 0, 0, 0, 0, 0, 0, 0, 0, 0, 0, 0, 0, 0, 0, 0, 0, 0, 0, 0, 0, 0, 0, 0, 0, 0, 0, 0, 0, 0, 0, 0
0, 0, 3, 0, 0, 0, 0, 0, 0, 0, 0, 0, 0, 1, 0, 0, 2, 2, 3, 2, 1, 2, 3, 1, 0, 2, 1, 5, 1, 0, 0, 5, 2, 2, 1, 1, 3, 2, 3, 1, 1, 1, 0, 1, 0, 0, 0, 0, 0, 0, 0, 0, 0, 0, 0, 0, 0, 0, 0, 0, 0, 0, 0, 0, 0, 0, 0, 0, 0, 0, 0, 0, 0, 0, 0, 0, 0, 0, 0, 0, 0, 0, 0, 0, 0, 0, 0, 0, 0, 0, 0, 0, 0, 0, 0, 0, 0, 0, 0, 0, 0, 0, 0, 0, 0, 0
0, 0, 4, 1, 0, 0, 0, 0, 0, 0, 2, 0, 1, 2, 0, 0, 3, 1, 0, 4, 1, 2, 3, 1, 5, 2, 3, 2, 3, 3, 2, 2, 2, 1, 4, 2, 1, 1, 2, 2, 1, 2, 2, 0, 0, 1, 0, 0, 0, 0, 0, 0, 0, 0, 0, 0, 0, 0, 0, 0, 0, 0, 0, 0, 0, 0, 0, 0, 0, 0, 0, 0, 0, 0, 0, 0, 0, 0, 0, 0, 0, 0, 0, 0, 0, 0, 0, 0, 0, 0, 0, 0, 0, 0, 0, 0, 0, 0, 0, 0, 0, 0, 0, 0, 0, 0
0, 0, 5, 4, 1, 2, 12, 10, 15, 17, 49, 35, 50, 59, 86, 77, 63, 102, 81, 83, 104, 113, 104, 115, 103, 93, 86, 87, 93, 82, 76, 69, 76, 59, 64, 67, 49, 49, 55, 41, 32, 41, 27, 23, 17, 5, 1, 0, 0, 0, 0, 0, 0, 0, 0, 0, 0, 0, 0, 0, 0, 0, 0, 0, 0, 0, 0, 0, 0, 0, 0, 0, 0, 0, 0, 0, 0, 0, 0, 0, 0, 0, 0, 0, 0, 0, 0, 0, 0, 0, 0, 0, 0, 0, 0, 0, 0, 0, 0, 0, 0, 0, 0, 0, 0, 0
0, 0, 6, 3, 4, 6, 14, 20, 39, 59, 107, 82, 112, 146, 165, 176, 166, 214, 226, 240, 265, 272, 250, 274, 247, 230, 212, 244, 217, 228, 186, 190, 156, 147, 188, 126, 134, 131, 126, 118, 85, 86, 74, 56, 48, 19, 1, 0, 0, 0, 0, 0, 0, 0, 0, 0, 0, 0, 0, 0, 0, 0, 0, 0, 0, 0, 0, 0, 0, 0, 0, 0, 0, 0, 0, 0, 0, 0, 0, 0, 0, 0, 0, 0, 0, 0, 0, 0, 0, 0, 0, 0, 0, 0, 0, 0, 0, 0, 0, 0, 0, 0, 0, 0, 0, 0
0, 0, 7, 5, 3, 8, 13, 17, 33, 51, 101, 97, 111, 146, 155, 204, 222, 202, 219, 261, 234, 252, 235, 273, 235, 229, 206, 227, 205, 205, 219, 201, 168, 157, 142, 165, 136, 104, 130, 107, 91, 69, 66, 62, 44, 22, 2, 0, 0, 0, 0, 0, 0, 0, 0, 0, 0, 0, 0, 0, 0, 0, 0, 0, 0, 0, 0, 0, 0, 0, 0, 0, 0, 0, 0, 0, 0, 0, 0, 0, 0, 0, 0, 0, 0, 0, 0, 0, 0, 0, 0, 0, 0, 0, 0, 0, 0, 0, 0, 0, 0, 0, 0, 0, 0, 0
0, 0, 8, 1, 4, 12, 11, 25, 31, 60, 114, 96, 97, 149, 169, 201, 195, 206, 229, 233, 253, 254, 242, 249, 255, 235, 253, 217, 202, 204, 190, 195, 181, 186, 153, 127, 129, 125, 121, 104, 102, 77, 59, 60, 47, 27, 2, 0, 0, 0, 0, 0, 0, 0, 0, 0, 0, 0, 0, 0, 0, 0, 0, 0, 0, 0, 0, 0, 0, 0, 0, 0, 0, 0, 0, 0, 0, 0, 0, 0, 0, 0, 0, 0, 0, 0, 0, 0, 0, 0, 0, 0, 0, 0, 0, 0, 0, 0, 0, 0, 0, 0, 0, 0, 0, 0
0, 0, 9, 2, 6, 7, 14, 26, 39, 66, 113, 108, 109, 141, 210, 188, 197, 210, 234, 248, 248, 226, 245, 237, 254, 225, 221, 220, 197, 224, 218, 170, 158, 183, 151, 124, 138, 104, 111, 99, 82, 80, 55, 50, 39, 26, 2, 0, 0, 0, 0, 0, 0, 0, 0, 0, 0, 0, 0, 0, 0, 0, 0, 0, 0, 0, 0, 0, 0, 0, 0, 0, 0, 0, 0, 0, 0, 0, 0, 0, 0, 0, 0, 0, 0, 0, 0, 0, 0, 0, 0, 0, 0, 0, 0, 0, 0, 0, 0, 0, 0, 0, 0, 0, 0, 0
0, 0, 10, 0, 0, 11, 9, 26, 35, 63, 128, 98, 104, 140, 168, 206, 194, 219, 218, 228, 246, 268, 228, 290, 236, 226, 219, 212, 232, 190, 224, 210, 181, 198, 142, 148, 151, 144, 114, 110, 98, 75, 73, 57, 38, 22, 0, 0, 0, 0, 0, 0, 0, 0, 0, 0, 0, 0, 0, 0, 0, 0, 0, 0, 0, 0, 0, 0, 0, 0, 0, 0, 0, 0, 0, 0, 0, 0, 0, 0, 0, 0, 0, 0, 0, 0, 0, 0, 0, 0, 0, 0, 0, 0, 0, 0, 0, 0, 0, 0, 0, 0, 0, 0, 0, 0
0, 0, 11, 3, 2, 3, 8, 21, 34, 61, 107, 95, 122, 136, 184, 195, 218, 201, 201, 260, 217, 240, 259, 252, 230, 239, 228, 215, 226, 232, 188, 184, 175, 178, 166, 142, 149, 111, 125, 109, 97, 68, 71, 57, 40, 24, 1, 0, 0, 0, 0, 0, 0, 0, 0, 0, 0, 0, 0, 0, 0, 0, 0, 0, 0, 0, 0, 0, 0, 0, 0, 0, 0, 0, 0, 0, 0, 0, 0, 0, 0, 0, 0, 0, 0, 0, 0, 0, 0, 0, 0, 0, 0, 0, 0, 0, 0, 0, 0, 0, 0, 0, 0, 0, 0, 0
0, 0, 12, 1, 10, 7, 16, 20, 42, 53, 121, 87, 125, 166, 164, 198, 206, 229, 251, 234, 250, 264, 264, 246, 211, 236, 245, 235, 194, 205, 226, 190, 189, 146, 170, 130, 156, 127, 119, 89, 97, 80, 61, 45, 31, 28, 2, 0, 0, 0, 0, 0, 0, 0, 0, 0, 0, 0, 0, 0, 0, 0, 0, 0, 0, 0, 0, 0, 0, 0, 0, 0, 0, 0, 0, 0, 0, 0, 0, 0, 0, 0, 0, 0, 0, 0, 0, 0, 0, 0, 0, 0, 0, 0, 0, 0, 0, 0, 0, 0, 0, 0, 0, 0, 0, 0
0, 0, 13, 0, 3, 9, 17, 28, 51, 56, 100, 97, 98, 154, 165, 241, 207, 218, 233, 234, 247, 228, 261, 215, 248, 241, 224, 209, 242, 173, 208, 217, 171, 179, 135, 158, 144, 137, 112, 100, 102, 77, 62, 58, 41, 24, 2, 0, 0, 0, 0, 0, 0, 0, 0, 0, 0, 0, 0, 0, 0, 0, 0, 0, 0, 0, 0, 0, 0, 0, 0, 0, 0, 0, 0, 0, 0, 0, 0, 0, 0, 0, 0, 0, 0, 0, 0, 0, 0, 0, 0, 0, 0, 0, 0, 0, 0, 0, 0, 0, 0, 0, 0, 0, 0, 0
0, 0, 14, 3, 4, 2, 13, 28, 31, 50, 121, 101, 115, 147, 181, 208, 228, 205, 215, 216, 272, 256, 234, 258, 259, 254, 239, 223, 233, 208, 200, 196, 170, 167, 145, 132, 152, 151, 116, 110, 94, 90, 67, 54, 37, 20, 1, 0, 0, 0, 0, 0, 0, 0, 0, 0, 0, 0, 0, 0, 0, 0, 0, 0, 0, 0, 0, 0, 0, 0, 0, 0, 0, 0, 0, 0, 0, 0, 0, 0, 0, 0, 0, 0, 0, 0, 0, 0, 0, 0, 0, 0, 0, 0, 0, 0, 0, 0, 0, 0, 0, 0, 0, 0, 0, 0
0, 0, 15, 2, 1, 5, 18, 17, 35, 47, 101, 93, 112, 150, 169, 193, 176, 198, 210, 262, 258, 282, 256, 249, 221, 253, 196, 249, 198, 175, 195, 185, 158, 193, 165, 154, 156, 117, 117, 112, 92, 93, 50, 54, 32, 19, 1, 0, 0, 0, 0, 0, 0, 0, 0, 0, 0, 0, 0, 0, 0, 0, 0, 0, 0, 0, 0, 0, 0, 0, 0, 0, 0, 0, 0, 0, 0, 0, 0, 0, 0, 0, 0, 0, 0, 0, 0, 0, 0, 0, 0, 0, 0, 0, 0, 0, 0, 0, 0, 0, 0, 0, 0, 0, 0, 0
0, 0, 16, 7, 3, 9, 18, 30, 29, 67, 100, 81, 121, 150, 176, 194, 185, 219, 253, 244, 218, 253, 270, 256, 273, 223, 246, 204, 235, 183, 188, 172, 162, 179, 152, 145, 123, 136, 127, 116, 108, 70, 78, 63, 30, 29, 0, 0, 0, 0, 0, 0, 0, 0, 0, 0, 0, 0, 0, 0, 0, 0, 0, 0, 0, 0, 0, 0, 0, 0, 0, 0, 0, 0, 0, 0, 0, 0, 0, 0, 0, 0, 0, 0, 0, 0, 0, 0, 0, 0, 0, 0, 0, 0, 0, 0, 0, 0, 0, 0, 0, 0, 0, 0, 0, 0
0, 0, 17, 4, 2, 7, 16, 30, 36, 55, 124, 90, 98, 140, 183, 209, 206, 224, 214, 245, 261, 274, 289, 230, 234, 230, 211, 188, 228, 185, 184, 182, 160, 178, 168, 153, 128, 120, 103, 103, 90, 66, 58, 52, 43, 17, 0, 0, 0, 0, 0, 0, 0, 0, 0, 0, 0, 0, 0, 0, 0, 0, 0, 0, 0, 0, 0, 0, 0, 0, 0, 0, 0, 0, 0, 0, 0, 0, 0, 0, 0, 0, 0, 0, 0, 0, 0, 0, 0, 0, 0, 0, 0, 0, 0, 0, 0, 0, 0, 0, 0, 0, 0, 0, 0, 0
0, 0, 18, 3, 5, 11, 18, 13, 39, 59, 125, 105, 129, 156, 169, 192, 193, 204, 216, 274, 262, 244, 255, 241, 260, 264, 220, 207, 215, 199, 184, 181, 171, 181, 152, 159, 133, 131, 118, 116, 91, 93, 76, 59, 32, 19, 2, 0, 0, 0, 0, 0, 0, 0, 0, 0, 0, 0, 0, 0, 0, 0, 0, 0, 0, 0, 0, 0, 0, 0, 0, 0, 0, 0, 0, 0, 0, 0, 0, 0, 0, 0, 0, 0, 0, 0, 0, 0, 0, 0, 0, 0, 0, 0, 0, 0, 0, 0, 0, 0, 0, 0, 0, 0, 0, 0
0, 0, 19, 8, 2, 8, 15, 32, 45, 62, 123, 99, 123, 129, 160, 223, 225, 209, 217, 236, 229, 253, 233, 258, 249, 248, 222, 219, 220, 225, 211, 191, 194, 170, 153, 154, 142, 115, 115, 115, 93, 69, 64, 63, 40, 26, 2, 0, 0, 0, 0, 0, 0, 0, 0, 0, 0, 0, 0, 0, 0, 0, 0, 0, 0, 0, 0, 0, 0, 0, 0, 0, 0, 0, 0, 0, 0, 0, 0, 0, 0, 0, 0, 0, 0, 0, 0, 0, 0, 0, 0, 0, 0, 0, 0, 0, 0, 0, 0, 0, 0, 0, 0, 0, 0, 0
0, 0, 20, 5, 0, 10, 10, 24, 43, 61, 122, 87, 106, 141, 161, 195, 229, 202, 216, 245, 243, 244, 260, 230, 250, 236, 240, 212, 218, 212, 193, 196, 167, 165, 183, 167, 131, 132, 121, 100, 111, 88, 70, 62, 36, 27, 1, 0, 0, 0, 0, 0, 0, 0, 0, 0, 0, 0, 0, 0, 0, 0, 0, 0, 0, 0, 0, 0, 0, 0, 0, 0, 0, 0, 0, 0, 0, 0, 0, 0, 0, 0, 0, 0, 0, 0, 0, 0, 0, 0, 0, 0, 0, 0, 0, 0, 0, 0, 0, 0, 0, 0, 0, 0, 0, 0
0, 0, 21, 6, 3, 6, 9, 27, 40, 49, 137, 82, 103, 152, 205, 200, 183, 213, 214, 251, 244, 276, 242, 215, 234, 257, 217, 238, 262, 198, 205, 179, 173, 179, 163, 147, 146, 113, 109, 111, 90, 93, 72, 63, 52, 23, 2, 0, 0, 0, 0, 0, 0, 0, 0, 0, 0, 0, 0, 0, 0, 0, 0, 0, 0, 0, 0, 0, 0, 0, 0, 0, 0, 0, 0, 0, 0, 0, 0, 0, 0, 0, 0, 0, 0, 0, 0, 0, 0, 0, 0, 0, 0, 0, 0, 0, 0, 0, 0, 0, 0, 0, 0, 0, 0, 0
0, 0, 22, 3, 4, 4, 13, 23, 48, 45, 103, 82, 120, 145, 191, 193, 202, 196, 233, 227, 253, 256, 229, 244, 278, 241, 228, 246, 217, 185, 170, 172, 203, 175, 173, 133, 121, 140, 129, 102, 107, 78, 71, 48, 29, 20, 4, 0, 0, 0, 0, 0, 0, 0, 0, 0, 0, 0, 0, 0, 0, 0, 0, 0, 0, 0, 0, 0, 0, 0, 0, 0, 0, 0, 0, 0, 0, 0, 0, 0, 0, 0, 0, 0, 0, 0, 0, 0, 0, 0, 0, 0, 0, 0, 0, 0, 0, 0, 0, 0, 0, 0, 0, 0, 0, 0
0, 0, 23, 6, 2, 8, 12, 29, 41, 63, 104, 93, 104, 150, 160, 214, 187, 223, 231, 238, 220, 230, 267, 226, 234, 226, 220, 226, 245, 198, 213, 169, 191, 193, 138, 141, 135, 135, 114, 90, 74, 71, 74, 46, 28, 20, 2, 0, 0, 0, 0, 0, 0, 0, 0, 0, 0, 0, 0, 0, 0, 0, 0, 0, 0, 0, 0, 0, 0, 0, 0, 0, 0, 0, 0, 0, 0, 0, 0, 0, 0, 0, 0, 0, 0, 0, 0, 0, 0, 0, 0, 0, 0, 0, 0, 0, 0, 0, 0, 0, 0, 0, 0, 0, 0, 0
0, 0, 24, 8, 5, 6, 13, 31, 50, 61, 111, 73, 115, 119, 180, 188, 208, 202, 193, 252, 250, 261, 255, 239, 177, 272, 226, 232, 204, 189, 200, 182, 165, 189, 148, 144, 156, 135, 113, 114, 87, 56, 78, 58, 42, 20, 2, 0, 0, 0, 0, 0, 0, 0, 0, 0, 0, 0, 0, 0, 0, 0, 0, 0, 0, 0, 0, 0, 0, 0, 0, 0, 0, 0, 0, 0, 0, 0, 0, 0, 0, 0, 0, 0, 0, 0, 0, 0, 0, 0, 0, 0, 0, 0, 0, 0, 0, 0, 0, 0, 0, 0, 0, 0, 0, 0
0, 0, 25, 2, 4, 6, 10, 31, 45, 53, 114, 98, 113, 135, 164, 169, 191, 210, 203, 245, 239, 270, 259, 255, 249, 245, 224, 238, 191, 219, 195, 211, 185, 174, 162, 122, 125, 119, 135, 89, 91, 78, 52, 56, 37, 12, 2, 0, 0, 0, 0, 0, 0, 0, 0, 0, 0, 0, 0, 0, 0, 0, 0, 0, 0, 0, 0, 0, 0, 0, 0, 0, 0, 0, 0, 0, 0, 0, 0, 0, 0, 0, 0, 0, 0, 0, 0, 0, 0, 0, 0, 0, 0, 0, 0, 0, 0, 0, 0, 0, 0, 0, 0, 0, 0, 0
0, 0, 26, 3, 6, 8, 12, 21, 33, 50, 145, 107, 119, 150, 159, 206, 184, 207, 238, 243, 260, 243, 260, 264, 221, 230, 242, 188, 205, 231, 193, 200, 182, 167, 131, 141, 138, 144, 112, 96, 119, 78, 77, 54, 44, 18, 1, 0, 0, 0, 0, 0, 0, 0, 0, 0, 0, 0, 0, 0, 0, 0, 0, 0, 0, 0, 0, 0, 0, 0, 0, 0, 0, 0, 0, 0, 0, 0, 0, 0, 0, 0, 0, 0, 0, 0, 0, 0, 0, 0, 0, 0, 0, 0, 0, 0, 0, 0, 0, 0, 0, 0, 0, 0, 0, 0
0, 0, 27, 2, 6, 6, 18, 20, 34, 59, 123, 105, 113, 151, 198, 181, 192, 211, 246, 241, 261, 263, 264, 250, 268, 237, 235, 238, 220, 214, 188, 186, 185, 173, 162, 160, 130, 136, 95, 94, 82, 74, 69, 67, 45, 31, 1, 0, 0, 0, 0, 0, 0, 0, 0, 0, 0, 0, 0, 0, 0, 0, 0, 0, 0, 0, 0, 0, 0, 0, 0, 0, 0, 0, 0, 0, 0, 0, 0, 0, 0, 0, 0, 0, 0, 0, 0, 0, 0, 0, 0, 0, 0, 0, 0, 0, 0, 0, 0, 0, 0, 0, 0, 0, 0, 0
0, 0, 28, 5, 1, 14, 15, 24, 28, 54, 127, 86, 107, 143, 173, 188, 187, 233, 233, 234, 253, 252, 225, 239, 236, 209, 236, 225, 231, 201, 195, 182, 185, 182, 163, 151, 141, 106, 99, 95, 94, 89, 69, 48, 33, 29, 2, 0, 0, 0, 0, 0, 0, 0, 0, 0, 0, 0, 0, 0, 0, 0, 0, 0, 0, 0, 0, 0, 0, 0, 0, 0, 0, 0, 0, 0, 0, 0, 0, 0, 0, 0, 0, 0, 0, 0, 0, 0, 0, 0, 0, 0, 0, 0, 0, 0, 0, 0, 0, 0, 0, 0, 0, 0, 0, 0
0, 0, 29, 5, 4, 11, 18, 21, 43, 46, 115, 104, 121, 150, 164, 206, 202, 218, 242, 228, 235, 243, 280, 265, 241, 232, 228, 228, 233, 212, 200, 184, 202, 192, 150, 120, 149, 117, 115, 115, 95, 67, 62, 60, 49, 14, 0, 0, 0, 0, 0, 0, 0, 0, 0, 0, 0, 0, 0, 0, 0, 0, 0, 0, 0, 0, 0, 0, 0, 0, 0, 0, 0, 0, 0, 0, 0, 0, 0, 0, 0, 0, 0, 0, 0, 0, 0, 0, 0, 0, 0, 0, 0, 0, 0, 0, 0, 0, 0, 0, 0, 0, 0, 0, 0, 0
0, 0, 30, 0, 2, 4, 7, 32, 47, 61, 121, 107, 128, 156, 177, 190, 216, 220, 229, 250, 233, 252, 275, 260, 257, 259, 223, 215, 241, 212, 196, 190, 176, 143, 160, 148, 155, 126, 133, 108, 106, 73, 70, 68, 46, 22, 1, 0, 0, 0, 0, 0, 0, 0, 0, 0, 0, 0, 0, 0, 0, 0, 0, 0, 0, 0, 0, 0, 0, 0, 0, 0, 0, 0, 0, 0, 0, 0, 0, 0, 0, 0, 0, 0, 0, 0, 0, 0, 0, 0, 0, 0, 0, 0, 0, 0, 0, 0, 0, 0, 0, 0, 0, 0, 0, 0
0, 0, 31, 2, 2, 9, 8, 25, 35, 63, 127, 104, 110, 154, 186, 202, 218, 195, 219, 237, 251, 244, 232, 214, 222, 251, 225, 264, 217, 208, 217, 177, 205, 158, 165, 164, 151, 131, 123, 88, 97, 68, 60, 70, 34, 26, 2, 0, 0, 0, 0, 0, 0, 0, 0, 0, 0, 0, 0, 0, 0, 0, 0, 0, 0, 0, 0, 0, 0, 0, 0, 0, 0, 0, 0, 0, 0, 0, 0, 0, 0, 0, 0, 0, 0, 0, 0, 0, 0, 0, 0, 0, 0, 0, 0, 0, 0, 0, 0, 0, 0, 0, 0, 0, 0, 0
0, 0, 32, 6, 3, 8, 12, 34, 43, 57, 126, 83, 94, 139, 146, 197, 200, 229, 212, 262, 236, 247, 233, 250, 255, 225, 226, 267, 228, 201, 188, 203, 161, 163, 164, 142, 132, 117, 113, 98, 126, 80, 74, 46, 35, 21, 1, 0, 0, 0, 0, 0, 0, 0, 0, 0, 0, 0, 0, 0, 0, 0, 0, 0, 0, 0, 0, 0, 0, 0, 0, 0, 0, 0, 0, 0, 0, 0, 0, 0, 0, 0, 0, 0, 0, 0, 0, 0, 0, 0, 0, 0, 0, 0, 0, 0, 0, 0, 0, 0, 0, 0, 0, 0, 0, 0
0, 0, 33, 1, 4, 5, 18, 21, 31, 53, 114, 91, 114, 156, 179, 190, 200, 215, 201, 242, 269, 233, 254, 237, 231, 246, 197, 233, 171, 223, 222, 174, 207, 158, 123, 154, 141, 131, 109, 109, 76, 85, 65, 58, 35, 24, 4, 0, 0, 0, 0, 0, 0, 0, 0, 0, 0, 0, 0, 0, 0, 0, 0, 0, 0, 0, 0, 0, 0, 0, 0, 0, 0, 0, 0, 0, 0, 0, 0, 0, 0, 0, 0, 0, 0, 0, 0, 0, 0, 0, 0, 0, 0, 0, 0, 0, 0, 0, 0, 0, 0, 0, 0, 0, 0, 0
0, 0, 34, 0, 4, 6, 14, 28, 38, 62, 111, 89, 115, 144, 161, 213, 214, 205, 204, 239, 283, 233, 255, 232, 239, 275, 228, 223, 218, 205, 205, 200, 162, 167, 173, 141, 144, 134, 115, 100, 105, 82, 75, 53, 27, 28, 5, 0, 0, 0, 0, 0, 0, 0, 0, 0, 0, 0, 0, 0, 0, 0, 0, 0, 0, 0, 0, 0, 0, 0, 0, 0, 0, 0, 0, 0, 0, 0, 0, 0, 0, 0, 0, 0, 0, 0, 0, 0, 0, 0, 0, 0, 0, 0, 0, 0, 0, 0, 0, 0, 0, 0, 0, 0, 0, 0
0, 0, 35, 0, 4, 12, 13, 28, 40, 57, 103, 75, 119, 157, 168, 194, 192, 209, 230, 234, 225, 228, 263, 244, 240, 226, 223, 182, 228, 212, 186, 203, 165, 199, 154, 146, 170, 133, 98, 106, 81, 87, 65, 52, 44, 25, 1, 0, 0, 0, 0, 0, 0, 0, 0, 0, 0, 0, 0, 0, 0, 0, 0, 0, 0, 0, 0, 0, 0, 0, 0, 0, 0, 0, 0, 0, 0, 0, 0, 0, 0, 0, 0, 0, 0, 0, 0, 0, 0, 0, 0, 0, 0, 0, 0, 0, 0, 0, 0, 0, 0, 0, 0, 0, 0, 0
0, 0, 36, 0, 4, 11, 11, 22, 40, 61, 123, 116, 132, 139, 165, 215, 204, 203, 221, 264, 255, 222, 255, 233, 241, 258, 208, 254, 203, 230, 187, 205, 168, 170, 146, 157, 139, 109, 92, 106, 82, 79, 77, 44, 44, 17, 3, 0, 0, 0, 0, 0, 0, 0, 0, 0, 0, 0, 0, 0, 0, 0, 0, 0, 0, 0, 0, 0, 0, 0, 0, 0, 0, 0, 0, 0, 0, 0, 0, 0, 0, 0, 0, 0, 0, 0, 0, 0, 0, 0, 0, 0, 0, 0, 0, 0, 0, 0, 0, 0, 0, 0, 0, 0, 0, 0
0, 0, 37, 8, 4, 10, 14, 23, 38, 65, 106, 89, 95, 165, 175, 232, 204, 243, 229, 234, 261, 264, 300, 216, 227, 231, 197, 238, 230, 195, 189, 210, 206, 157, 190, 142, 147, 120, 119, 98, 91, 80, 55, 44, 39, 21, 0, 0, 0, 0, 0, 0, 0, 0, 0, 0, 0, 0, 0, 0, 0, 0, 0, 0, 0, 0, 0, 0, 0, 0, 0, 0, 0, 0, 0, 0, 0, 0, 0, 0, 0, 0, 0, 0, 0, 0, 0, 0, 0, 0, 0, 0, 0, 0, 0, 0, 0, 0, 0, 0, 0, 0, 0, 0, 0, 0
0, 0, 38, 2, 4, 8, 17, 25, 59, 57, 122, 95, 119, 142, 195, 192, 190, 218, 230, 262, 255, 250, 252, 223, 252, 227, 237, 209, 222, 233, 215, 171, 193, 149, 167, 152, 124, 107, 113, 125, 106, 75, 67, 50, 33, 21, 0, 0, 0, 0, 0, 0, 0, 0, 0, 0, 0, 0, 0, 0, 0, 0, 0, 0, 0, 0, 0, 0, 0, 0, 0, 0, 0, 0, 0, 0, 0, 0, 0, 0, 0, 0, 0, 0, 0, 0, 0, 0, 0, 0, 0, 0, 0, 0, 0, 0, 0, 0, 0, 0, 0, 0, 0, 0, 0, 0
0, 0, 39, 8, 2, 3, 11, 24, 29, 51, 111, 96, 130, 127, 174, 178, 227, 181, 198, 244, 284, 273, 242, 245, 224, 216, 233, 229, 225, 187, 201, 182, 168, 166, 170, 162, 125, 124, 112, 115, 79, 75, 52, 42, 40, 17, 2, 0, 0, 0, 0, 0, 0, 0, 0, 0, 0, 0, 0, 0, 0, 0, 0, 0, 0, 0, 0, 0, 0, 0, 0, 0, 0, 0, 0, 0, 0, 0, 0, 0, 0, 0, 0, 0, 0, 0, 0, 0, 0, 0, 0, 0, 0, 0, 0, 0, 0, 0, 0, 0, 0, 0, 0, 0, 0, 0
0, 0, 40, 0, 2, 7, 18, 33, 38, 50, 100, 93, 110, 156, 170, 201, 183, 198, 226, 233, 245, 279, 250, 246, 252, 251, 245, 213, 226, 220, 218, 198, 188, 147, 160, 175, 131, 118, 104, 102, 93, 72, 75, 57, 33, 13, 2, 0, 0, 0, 0, 0, 0, 0, 0, 0, 0, 0, 0, 0, 0, 0, 0, 0, 0, 0, 0, 0, 0, 0, 0, 0, 0, 0, 0, 0, 0, 0, 0, 0, 0, 0, 0, 0, 0, 0, 0, 0, 0, 0, 0, 0, 0, 0, 0, 0, 0, 0, 0, 0, 0, 0, 0, 0, 0, 0
0, 0, 41, 4, 0, 3, 18, 23, 45, 47, 95, 102, 133, 139, 123, 189, 183, 207, 221, 217, 237, 239, 234, 213, 232, 204, 187, 203, 196, 189, 164, 178, 163, 152, 159, 150, 137, 112, 83, 81, 88, 78, 46, 58, 57, 30, 2, 0, 0, 0, 0, 0, 0, 0, 0, 0, 0, 0, 0, 0, 0, 0, 0, 0, 0, 0, 0, 0, 0, 0, 0, 0, 0, 0, 0, 0, 0, 0, 0, 0, 0, 0, 0, 0, 0, 0, 0, 0, 0, 0, 0, 0, 0, 0, 0, 0, 0, 0, 0, 0, 0, 0, 0, 0, 0, 0
0, 0, 42, 3, 1, 10, 8, 20, 32, 39, 68, 77, 89, 114, 117, 126, 125, 141, 170, 194, 192, 171, 200, 185, 175, 202, 151, 174, 171, 126, 154, 135, 127, 133, 124, 110, 94, 115, 72, 67, 72, 55, 59, 39, 23, 18, 2, 0, 0, 0, 0, 0, 0, 0, 0, 0, 0, 0, 0, 0, 0, 0, 0, 0, 0, 0, 0, 0, 0, 0, 0, 0, 0, 0, 0, 0, 0, 0, 0, 0, 0, 0, 0, 0, 0, 0, 0, 0, 0, 0, 0, 0, 0, 0, 0, 0, 0, 0, 0, 0, 0, 0, 0, 0, 0, 0
0, 0, 43, 0, 1, 7, 6, 10, 24, 29, 56, 57, 80, 86, 82, 122, 138, 112, 144, 114, 144, 138, 132, 155, 145, 148, 136, 149, 108, 121, 122, 99, 120, 92, 96, 85, 108, 73, 75, 70, 64, 49, 39, 30, 32, 15, 2, 0, 0, 0, 0, 0, 0, 0, 0, 0, 0, 0, 0, 0, 0, 0, 0, 0, 0, 0, 0, 0, 0, 0, 0, 0, 0, 0, 0, 0, 0, 0, 0, 0, 0, 0, 0, 0, 0, 0, 0, 0, 0, 0, 0, 0, 0, 0, 0, 0, 0, 0, 0, 0, 0, 0, 0, 0, 0, 0
0, 0, 44, 0, 0, 3, 8, 7, 17, 19, 44, 32, 41, 64, 76, 76, 77, 78, 92, 100, 103, 103, 104, 117, 127, 108, 116, 105, 90, 106, 101, 91, 86, 93, 90, 62, 70, 52, 54, 54, 39, 42, 41, 29, 13, 8, 0, 0, 0, 0, 0, 0, 0, 0, 0, 0, 0, 0, 0, 0, 0, 0, 0, 0, 0, 0, 0, 0, 0, 0, 0, 0, 0, 0, 0, 0, 0, 0, 0, 0, 0, 0, 0, 0, 0, 0, 0, 0, 0, 0, 0, 0, 0, 0, 0, 0, 0, 0, 0, 0, 0, 0, 0, 0, 0, 0
0, 0, 45, 1, 0, 1, 6, 4, 7, 23, 31, 31, 35, 36, 52, 52, 53, 53, 76, 65, 85, 72, 104, 80, 76, 72, 87, 86, 82, 65, 71, 68, 64, 82, 52, 40, 50, 48, 55, 40, 38, 28, 31, 17, 20, 3, 0, 0, 0, 0, 0, 0, 0, 0, 0, 0, 0, 0, 0, 0, 0, 0, 0, 0, 0, 0, 0, 0, 0, 0, 0, 0, 0, 0, 0, 0, 0, 0, 0, 0, 0, 0, 0, 0, 0, 0, 0, 0, 0, 0, 0, 0, 0, 0, 0, 0, 0, 0, 0, 0, 0, 0, 0, 0, 0, 0
0, 0, 46, 1, 0, 0, 2, 6, 8, 8, 30, 12, 21, 27, 36, 42, 36, 42, 38, 56, 61, 69, 57, 69, 54, 50, 58, 52, 56, 48, 53, 57, 43, 43, 46, 40, 45, 30, 34, 33, 30, 28, 18, 14, 16, 3, 0, 0, 0, 0, 0, 0, 0, 0, 0, 0, 0, 0, 0, 0, 0, 0, 0, 0, 0, 0, 0, 0, 0, 0, 0, 0, 0, 0, 0, 0, 0, 0, 0, 0, 0, 0, 0, 0, 0, 0, 0, 0, 0, 0, 0, 0, 0, 0, 0, 0, 0, 0, 0, 0, 0, 0, 0, 0, 0, 0
0, 0, 47, 2, 0, 0, 2, 5, 8, 3, 10, 15, 9, 16, 25, 22, 22, 19, 36, 38, 40, 53, 57, 47, 40, 51, 43, 41, 51, 39, 43, 41, 37, 30, 38, 38, 29, 37, 22, 20, 21, 21, 23, 20, 4, 7, 1, 0, 0, 0, 0, 0, 0, 0, 0, 0, 0, 0, 0, 0, 0, 0, 0, 0, 0, 0, 0, 0, 0, 0, 0, 0, 0, 0, 0, 0, 0, 0, 0, 0, 0, 0, 0, 0, 0, 0, 0, 0, 0, 0, 0, 0, 0, 0, 0, 0, 0, 0, 0, 0, 0, 0, 0, 0, 0, 0
0, 0, 48, 4, 1, 1, 0, 0, 2, 0, 10, 4, 6, 6, 9, 17, 13, 14, 22, 35, 28, 40, 43, 26, 29, 39, 29, 32, 28, 44, 41, 23, 33, 24, 29, 40, 27, 29, 23, 22, 18, 12, 17, 15, 9, 5, 3, 0, 0, 0, 0, 0, 0, 0, 0, 0, 0, 0, 0, 0, 0, 0, 0, 0, 0, 0, 0, 0, 0, 0, 0, 0, 0, 0, 0, 0, 0, 0, 0, 0, 0, 0, 0, 0, 0, 0, 0, 0, 0, 0, 0, 0, 0, 0, 0, 0, 0, 0, 0, 0, 0, 0, 0, 0, 0, 0
0, 0, 49, 0, 0, 0, 0, 0, 0, 0, 5, 2, 8, 5, 7, 6, 7, 13, 14, 6, 23, 25, 32, 25, 31, 30, 42, 27, 35, 34, 23, 22, 23, 28, 22, 18, 20, 23, 18, 35, 12, 14, 11, 9, 10, 3, 0, 0, 0, 0, 0, 0, 0, 0, 0, 0, 0, 0, 0, 0, 0, 0, 0, 0, 0, 0, 0, 0, 0, 0, 0, 0, 0, 0, 0, 0, 0, 0, 0, 0, 0, 0, 0, 0, 0, 0, 0, 0, 0, 0, 0, 0, 0, 0, 0, 0, 0, 0, 0, 0, 0, 0, 0, 0, 0, 0
0, 0, 50, 0, 0, 0, 0, 0, 1, 0, 6, 1, 2, 5, 5, 6, 9, 15, 12, 16, 21, 20, 20, 32, 25, 33, 37, 27, 30, 34, 31, 24, 24, 16, 21, 43, 28, 14, 26, 12, 14, 11, 19, 12, 11, 5, 0, 0, 0, 0, 0, 0, 0, 0, 0, 0, 0, 0, 0, 0, 0, 0, 0, 0, 0, 0, 0, 0, 0, 0, 0, 0, 0, 0, 0, 0, 0, 0, 0, 0, 0, 0, 0, 0, 0, 0, 0, 0, 0, 0, 0, 0, 0, 0, 0, 0, 0, 0, 0, 0, 0, 0, 0, 0, 0, 0
0, 0, 51, 1, 0, 0, 0, 2, 1, 4, 10, 4, 7, 11, 17, 12, 14, 11, 30, 27, 27, 26, 18, 39, 29, 36, 36, 27, 32, 30, 44, 30, 35, 33, 27, 30, 21, 24, 31, 23, 20, 15, 21, 14, 8, 1, 0, 0, 0, 0, 0, 0, 0, 0, 0, 0, 0, 0, 0, 0, 0, 0, 0, 0, 0, 0, 0, 0, 0, 0, 0, 0, 0, 0, 0, 0, 0, 0, 0, 0, 0, 0, 0, 0, 0, 0, 0, 0, 0, 0, 0, 0, 0, 0, 0, 0, 0, 0, 0, 0, 0, 0, 0, 0, 0, 0
0, 0, 52, 0, 0, 1, 1, 3, 2, 6, 11, 8, 11, 9, 15, 24, 29, 18, 21, 33, 41, 39, 41, 40, 37, 47, 52, 40, 42, 46, 39, 44, 36, 50, 39, 44, 30, 37, 13, 28, 24, 18, 15, 15, 9, 6, 1, 0, 0, 0, 0, 0, 0, 0, 0, 0, 0, 0, 0, 0, 0, 0, 0, 0, 0, 0, 0, 0, 0, 0, 0, 0, 0, 0, 0, 0, 0, 0, 0, 0, 0, 0, 0, 0, 0, 0, 0, 0, 0, 0, 0, 0, 0, 0, 0, 0, 0, 0, 0, 0, 0, 0, 0, 0, 0, 0
0, 0, 53, 1, 1, 0, 2, 4, 1, 10, 13, 14, 23, 22, 35, 46, 41, 40, 57, 53, 61, 37, 41, 60, 42, 65, 66, 69, 56, 49, 52, 50, 53, 48, 50, 47, 41, 47, 28, 24, 23, 31, 21, 30, 16, 8, 0, 0, 0, 0, 0, 0, 0, 0, 0, 0, 0, 0, 0, 0, 0, 0, 0, 0, 0, 0, 0, 0, 0, 0, 0, 0, 0, 0, 0, 0, 0, 0, 0, 0, 0, 0, 0, 0, 0, 0, 0, 0, 0, 0, 0, 0, 0, 0, 0, 0, 0, 0, 0, 0, 0, 0, 0, 0, 0, 0
0, 0, 54, 0, 1, 2, 2, 6, 6, 20, 17, 29, 23, 41, 52, 55, 60, 57, 66, 66, 81, 67, 93, 76, 85, 84, 75, 96, 69, 60, 72, 80, 58, 57, 58, 47, 56, 49, 47, 48, 28, 36, 33, 20, 17, 8, 0, 0, 0, 0, 0, 0, 0, 0, 0, 0, 0, 0, 0, 0, 0, 0, 0, 0, 0, 0, 0, 0, 0, 0, 0, 0, 0, 0, 0, 0, 0, 0, 0, 0, 0, 0, 0, 0, 0, 0, 0, 0, 0, 0, 0, 0, 0, 0, 0, 0, 0, 0, 0, 0, 0, 0, 0, 0, 0, 0
0, 0, 55, 0, 3, 7, 9, 7, 17, 16, 34, 40, 45, 56, 75, 85, 97, 98, 86, 110, 127, 108, 118, 106, 89, 101, 106, 108, 95, 114, 107, 90, 74, 88, 63, 67, 66, 68, 52, 58, 55, 37, 36, 32, 16, 10, 0, 0, 0, 0, 0, 0, 0, 0, 0, 0, 0, 0, 0, 0, 0, 0, 0, 0, 0, 0, 0, 0, 0, 0, 0, 0, 0, 0, 0, 0, 0, 0, 0, 0, 0, 0, 0, 0, 0, 0, 0, 0, 0, 0, 0, 0, 0, 0, 0, 0, 0, 0, 0, 0, 0, 0, 0, 0, 0, 0
0, 0, 56, 0, 3, 9, 7, 17, 22, 38, 54, 52, 64, 65, 91, 108, 126, 119, 131, 126, 147, 167, 161, 145, 115, 138, 123, 155, 104, 139, 108, 104, 96, 109, 87, 93, 72, 77, 58, 62, 49, 46, 47, 32, 26, 10, 0, 0, 0, 0, 0, 0, 0, 0, 0, 0, 0, 0, 0, 0, 0, 0, 0, 0, 0, 0, 0, 0, 0, 0, 0, 0, 0, 0, 0, 0, 0, 0, 0, 0, 0, 0, 0, 0, 0, 0, 0, 0, 0, 0, 0, 0, 0, 0, 0, 0, 0, 0, 0, 0, 0, 0, 0, 0, 0, 0
0, 0, 57, 0, 2, 9, 10, 15, 39, 31, 90, 64, 94, 98, 108, 178, 158, 142, 180, 174, 184, 196, 177, 198, 175, 184, 202, 193, 152, 144, 166, 149, 130, 135, 111, 117, 117, 84, 89, 91, 66, 67, 62, 33, 34, 21, 1, 0, 0, 0, 0, 0, 0, 0, 0, 0, 0, 0, 0, 0, 0, 0, 0, 0, 0, 0, 0, 0, 0, 0, 0, 0, 0, 0, 0, 0, 0, 0, 0, 0, 0, 0, 0, 0, 0, 0, 0, 0, 0, 0, 0, 0, 0, 0, 0, 0, 0, 0, 0, 0, 0, 0, 0, 0, 0, 0
0, 0, 58, 0, 3, 10, 11, 20, 30, 51, 84, 82, 113, 131, 146, 179, 203, 213, 183, 251, 197, 258, 227, 232, 220, 216, 218, 228, 214, 201, 191, 148, 145, 162, 142, 138, 121, 129, 94, 88, 78, 75, 62, 62, 47, 33, 1, 0, 0, 0, 0, 0, 0, 0, 0, 0, 0, 0, 0, 0, 0, 0, 0, 0, 0, 0, 0, 0, 0, 0, 0, 0, 0, 0, 0, 0, 0, 0, 0, 0, 0, 0, 0, 0, 0, 0, 0, 0, 0, 0, 0, 0, 0, 0, 0, 0, 0, 0, 0, 0, 0, 0, 0, 0, 0, 0
0, 0, 59, 1, 3, 5, 11, 29, 35, 63, 99, 89, 105, 129, 159, 226, 230, 184, 224, 214, 252, 224, 227, 226, 241, 233, 246, 239, 221, 211, 180, 170, 167, 185, 137, 151, 148, 125, 123, 95, 97, 68, 55, 58, 42, 18, 1, 0, 0, 0, 0, 0, 0, 0, 0, 0, 0, 0, 0, 0, 0, 0, 0, 0, 0, 0, 0, 0, 0, 0, 0, 0, 0, 0, 0, 0, 0, 0, 0, 0, 0, 0, 0, 0, 0, 0, 0, 0, 0, 0, 0, 0, 0, 0, 0, 0, 0, 0, 0, 0, 0, 0, 0, 0, 0, 0
0, 0, 60, 3, 5, 7, 12, 23, 34, 57, 108, 100, 106, 136, 183, 194, 168, 212, 225, 245, 245, 229, 237, 246, 257, 246, 199, 210, 237, 242, 208, 209, 162, 162, 164, 143, 129, 118, 113, 94, 93, 82, 80, 52, 33, 18, 1, 0, 0, 0, 0, 0, 0, 0, 0, 0, 0, 0, 0, 0, 0, 0, 0, 0, 0, 0, 0, 0, 0, 0, 0, 0, 0, 0, 0, 0, 0, 0, 0, 0, 0, 0, 0, 0, 0, 0, 0, 0, 0, 0, 0, 0, 0, 0, 0, 0, 0, 0, 0, 0, 0, 0, 0, 0, 0, 0
0, 0, 61, 1, 4, 2, 22, 20, 40, 61, 116, 120, 94, 153, 178, 175, 189, 218, 207, 243, 242, 211, 247, 250, 258, 258, 215, 220, 185, 212, 209, 188, 205, 174, 162, 135, 142, 104, 119, 104, 96, 86, 69, 64, 42, 23, 0, 0, 0, 0, 0, 0, 0, 0, 0, 0, 0, 0, 0, 0, 0, 0, 0, 0, 0, 0, 0, 0, 0, 0, 0, 0, 0, 0, 0, 0, 0, 0, 0, 0, 0, 0, 0, 0, 0, 0, 0, 0, 0, 0, 0, 0, 0, 0, 0, 0, 0, 0, 0, 0, 0, 0, 0, 0, 0, 0
0, 0, 62, 0, 3, 6, 19, 18, 44, 54, 130, 98, 122, 150, 175, 200, 196, 208, 196, 248, 198, 276, 235, 214, 249, 239, 225, 247, 197, 240, 218, 188, 162, 173, 148, 158, 127, 133, 131, 108, 95, 70, 69, 54, 44, 22, 2, 0, 0, 0, 0, 0, 0, 0, 0, 0, 0, 0, 0, 0, 0, 0, 0, 0, 0, 0, 0, 0, 0, 0, 0, 0, 0, 0, 0, 0, 0, 0, 0, 0, 0, 0, 0, 0, 0, 0, 0, 0, 0, 0, 0, 0, 0, 0, 0, 0, 0, 0, 0, 0, 0, 0, 0, 0, 0, 0
0, 0, 63, 0, 1, 12, 11, 30, 40, 64, 105, 93, 122, 136, 159, 213, 204, 204, 234, 233, 257, 240, 221, 243, 257, 249, 235, 226, 225, 204, 202, 180, 203, 174, 148, 140, 133, 150, 106, 103, 118, 77, 64, 54, 38, 22, 3, 0, 0, 0, 0, 0, 0, 0, 0, 0, 0, 0, 0, 0, 0, 0, 0, 0, 0, 0, 0, 0, 0, 0, 0, 0, 0, 0, 0, 0, 0, 0, 0, 0, 0, 0, 0, 0, 0, 0, 0, 0, 0, 0, 0, 0, 0, 0, 0, 0, 0, 0, 0, 0, 0, 0, 0, 0, 0, 0
0, 0, 64, 2, 2, 3, 12, 30, 45, 63, 124, 99, 111, 171, 177, 206, 183, 225, 227, 241, 244, 241, 268, 229, 241, 256, 235, 214, 223, 213, 215, 181, 182, 174, 185, 159, 136, 129, 113, 106, 64, 68, 50, 53, 43, 16, 0, 0, 0, 0, 0, 0, 0, 0, 0, 0, 0, 0, 0, 0, 0, 0, 0, 0, 0, 0, 0, 0, 0, 0, 0, 0, 0, 0, 0, 0, 0, 0, 0, 0, 0, 0, 0, 0, 0, 0, 0, 0, 0, 0, 0, 0, 0, 0, 0, 0, 0, 0, 0, 0, 0, 0, 0, 0, 0, 0
0, 0, 65, 2, 5, 4, 15, 25, 44, 54, 110, 94, 109, 162, 175, 221, 196, 211, 242, 226, 227, 255, 255, 262, 269, 272, 232, 231, 205, 211, 186, 222, 172, 185, 130, 178, 124, 133, 120, 109, 121, 85, 74, 54, 39, 23, 0, 0, 0, 0, 0, 0, 0, 0, 0, 0, 0, 0, 0, 0, 0, 0, 0, 0, 0, 0, 0, 0, 0, 0, 0, 0, 0, 0, 0, 0, 0, 0, 0, 0, 0, 0, 0, 0, 0, 0, 0, 0, 0, 0, 0, 0, 0, 0, 0, 0, 0, 0, 0, 0, 0, 0, 0, 0, 0, 0
0, 0, 66, 2, 3, 5, 13, 20, 36, 65, 134, 83, 116, 116, 163, 164, 209, 231, 216, 265, 241, 259, 277, 213, 236, 260, 223, 220, 178, 186, 236, 175, 176, 178, 163, 162, 128, 120, 123, 123, 98, 56, 74, 51, 33, 20, 1, 0, 0, 0, 0, 0, 0, 0, 0, 0, 0, 0, 0, 0, 0, 0, 0, 0, 0, 0, 0, 0, 0, 0, 0, 0, 0, 0, 0, 0, 0, 0, 0, 0, 0, 0, 0, 0, 0, 0, 0, 0, 0, 0, 0, 0, 0, 0, 0, 0, 0, 0, 0, 0, 0, 0, 0, 0, 0, 0
0, 0, 67, 3, 1, 9, 13, 32, 42, 56, 123, 108, 110, 162, 180, 186, 186, 222, 238, 273, 244, 257, 248, 255, 252, 236, 260, 225, 213, 231, 203, 173, 182, 206, 163, 166, 137, 137, 97, 89, 101, 79, 79, 63, 37, 19, 3, 0, 0, 0, 0, 0, 0, 0, 0, 0, 0, 0, 0, 0, 0, 0, 0, 0, 0, 0, 0, 0, 0, 0, 0, 0, 0, 0, 0, 0, 0, 0, 0, 0, 0, 0, 0, 0, 0, 0, 0, 0, 0, 0, 0, 0, 0, 0, 0, 0, 0, 0, 0, 0, 0, 0, 0, 0, 0, 0
0, 0, 68, 3, 3, 8, 16, 20, 53, 63, 108, 88, 124, 151, 166, 206, 205, 229, 210, 246, 242, 258, 229, 250, 228, 259, 256, 229, 243, 222, 207, 206, 177, 187, 163, 174, 121, 154, 114, 103, 104, 78, 65, 50, 49, 20, 3, 0, 0, 0, 0, 0, 0, 0, 0, 0, 0, 0, 0, 0, 0, 0, 0, 0, 0, 0, 0, 0, 0, 0, 0, 0, 0, 0, 0, 0, 0, 0, 0, 0, 0, 0, 0, 0, 0, 0, 0, 0, 0, 0, 0, 0, 0, 0, 0, 0, 0, 0, 0, 0, 0, 0, 0, 0, 0, 0
0, 0, 69, 2, 5, 7, 13, 24, 48, 62, 128, 101, 107, 143, 182, 212, 224, 230, 267, 239, 235, 237, 238, 265, 220, 234, 233, 248, 225, 207, 195, 183, 189, 165, 151, 144, 127, 114, 122, 100, 84, 72, 65, 55, 30, 26, 2, 0, 0, 0, 0, 0, 0, 0, 0, 0, 0, 0, 0, 0, 0, 0, 0, 0, 0, 0, 0, 0, 0, 0, 0, 0, 0, 0, 0, 0, 0, 0, 0, 0, 0, 0, 0, 0, 0, 0, 0, 0, 0, 0, 0, 0, 0, 0, 0, 0, 0, 0, 0, 0, 0, 0, 0, 0, 0, 0
0, 0, 70, 3, 4, 8, 17, 19, 48, 59, 122, 89, 122, 147, 178, 205, 209, 204, 246, 249, 199, 247, 220, 255, 254, 240, 238, 200, 206, 210, 225, 181, 167, 185, 161, 143, 142, 111, 115, 112, 79, 77, 91, 52, 55, 18, 0, 0, 0, 0, 0, 0, 0, 0, 0, 0, 0, 0, 0, 0, 0, 0, 0, 0, 0, 0, 0, 0, 0, 0, 0, 0, 0, 0, 0, 0, 0, 0, 0, 0, 0, 0, 0, 0, 0, 0, 0, 0, 0, 0, 0, 0, 0, 0, 0, 0, 0, 0, 0, 0, 0, 0, 0, 0, 0, 0
0, 0, 71, 1, 5, 12, 7, 33, 43, 67, 117, 99, 117, 137, 185, 178, 192, 227, 224, 225, 242, 250, 255, 255, 230, 207, 224, 246, 221, 194, 199, 206, 179, 159, 150, 145, 139, 127, 134, 94, 73, 79, 57, 67, 44, 25, 1, 0, 0, 0, 0, 0, 0, 0, 0, 0, 0, 0, 0, 0, 0, 0, 0, 0, 0, 0, 0, 0, 0, 0, 0, 0, 0, 0, 0, 0, 0, 0, 0, 0, 0, 0, 0, 0, 0, 0, 0, 0, 0, 0, 0, 0, 0, 0, 0, 0, 0, 0, 0, 0, 0, 0, 0, 0, 0, 0
0, 0, 72, 8, 4, 13, 15, 32, 41, 63, 113, 99, 119, 156, 170, 188, 205, 213, 207, 218, 245, 220, 224, 250, 226, 217, 247, 229, 248, 208, 185, 169, 176, 171, 181, 156, 154, 109, 100, 90, 86, 61, 60, 70, 43, 17, 1, 0, 0, 0, 0, 0, 0, 0, 0, 0, 0, 0, 0, 0, 0, 0, 0, 0, 0, 0, 0, 0, 0, 0, 0, 0, 0, 0, 0, 0, 0, 0, 0, 0, 0, 0, 0, 0, 0, 0, 0, 0, 0, 0, 0, 0, 0, 0, 0, 0, 0, 0, 0, 0, 0, 0, 0, 0, 0, 0
0, 0, 73, 1, 4, 7, 20, 16, 47, 52, 118, 94, 114, 138, 159, 187, 227, 203, 229, 250, 274, 255, 241, 248, 241, 234, 210, 239, 239, 230, 187, 177, 151, 179, 146, 148, 115, 102, 98, 99, 90, 93, 73, 61, 38, 26, 1, 0, 0, 0, 0, 0, 0, 0, 0, 0, 0, 0, 0, 0, 0, 0, 0, 0, 0, 0, 0, 0, 0, 0, 0, 0, 0, 0, 0, 0, 0, 0, 0, 0, 0, 0, 0, 0, 0, 0, 0, 0, 0, 0, 0, 0, 0, 0, 0, 0, 0, 0, 0, 0, 0, 0, 0, 0, 0, 0
0, 0, 74, 6, 4, 10, 21, 27, 44, 56, 107, 99, 123, 163, 174, 208, 219, 210, 228, 226, 252, 254, 267, 247, 234, 239, 237, 215, 209, 191, 186, 209, 170, 184, 152, 148, 121, 122, 112, 100, 94, 94, 59, 58, 53, 32, 0, 0, 0, 0, 0, 0, 0, 0, 0, 0, 0, 0, 0, 0, 0, 0, 0, 0, 0, 0, 0, 0, 0, 0, 0, 0, 0, 0, 0, 0, 0, 0, 0, 0, 0, 0, 0, 0, 0, 0, 0, 0, 0, 0, 0, 0, 0, 0, 0, 0, 0, 0, 0, 0, 0, 0, 0, 0, 0, 0
0, 0, 75, 4, 7, 3, 15, 26, 39, 50, 130, 88, 112, 166, 171, 186, 199, 224, 214, 236, 230, 234, 248, 235, 242, 245, 225, 210, 248, 212, 196, 204, 175, 167, 191, 146, 133, 141, 97, 100, 94, 91, 73, 65, 40, 28, 2, 0, 0, 0, 0, 0, 0, 0, 0, 0, 0, 0, 0, 0, 0, 0, 0, 0, 0, 0, 0, 0, 0, 0, 0, 0, 0, 0, 0, 0, 0, 0, 0, 0, 0, 0, 0, 0, 0, 0, 0, 0, 0, 0, 0, 0, 0, 0, 0, 0, 0, 0, 0, 0, 0, 0, 0, 0, 0, 0
0, 0, 76, 2, 4, 4, 16, 23, 50, 59, 104, 83, 117, 145, 180, 191, 212, 239, 193, 251, 269, 244, 246, 267, 225, 238, 209, 224, 224, 194, 208, 169, 167, 158, 153, 137, 151, 121, 107, 94, 91, 71, 43, 55, 34, 23, 0, 0, 0, 0, 0, 0, 0, 0, 0, 0, 0, 0, 0, 0, 0, 0, 0, 0, 0, 0, 0, 0, 0, 0, 0, 0, 0, 0, 0, 0, 0, 0, 0, 0, 0, 0, 0, 0, 0, 0, 0, 0, 0, 0, 0, 0, 0, 0, 0, 0, 0, 0, 0, 0, 0, 0, 0, 0, 0, 0
0, 0, 77, 5, 2, 8, 8, 25, 38, 52, 135, 110, 112, 150, 182, 191, 217, 186, 218, 239, 240, 253, 208, 236, 247, 299, 211, 223, 217, 244, 190, 209, 188, 149, 159, 151, 149, 132, 112, 91, 88, 86, 85, 59, 40, 24, 2, 0, 0, 0, 0, 0, 0, 0, 0, 0, 0, 0, 0, 0, 0, 0, 0, 0, 0, 0, 0, 0, 0, 0, 0, 0, 0, 0, 0, 0, 0, 0, 0, 0, 0, 0, 0, 0, 0, 0, 0, 0, 0, 0, 0, 0, 0, 0, 0, 0, 0, 0, 0, 0, 0, 0, 0, 0, 0, 0
