# TOPAS Version: 3.1.p3
# Parameter File: REDLEN_small_phantom_mc_basic_3cm.txt
# Results for scorer PhantomDose
# Scored on surface: CdTeCrystal1/YPlusSurface
# X in 100 bins of 0.03332 cm
# Y in 1 bin  of 0.4 cm
# Z in 100 bins of 0.0375 cm
# SurfaceTrackCount : Sum   
# Binned by incident track energy in 100 bins of 0.00104 MeV from 0.016 MeV to 0.12 MeV
# First bin is underflow, next to last bin is overflow, last bin is for case of no incident track.
0, 0, 0, 0, 0, 0, 0, 0, 1, 0, 1, 0, 0, 0, 2, 1, 2, 2, 1, 1, 3, 0, 1, 1, 1, 1, 3, 2, 1, 4, 3, 6, 0, 3, 2, 3, 2, 2, 2, 0, 0, 0, 1, 1, 0, 0, 0, 0, 0, 0, 0, 0, 0, 0, 0, 0, 0, 0, 0, 0, 0, 0, 0, 0, 0, 0, 0, 0, 0, 0, 0, 0, 0, 0, 0, 0, 0, 0, 0, 0, 0, 0, 0, 0, 0, 0, 0, 0, 0, 0, 0, 0, 0, 0, 0, 0, 0, 0, 0, 0, 0, 0, 0, 0, 0, 0
0, 0, 1, 0, 0, 0, 0, 0, 0, 0, 2, 1, 1, 1, 0, 1, 1, 1, 1, 1, 4, 6, 6, 2, 3, 0, 5, 3, 1, 3, 3, 2, 2, 1, 0, 0, 3, 1, 1, 0, 2, 1, 2, 0, 2, 0, 0, 0, 0, 0, 0, 0, 0, 0, 0, 0, 0, 0, 0, 0, 0, 0, 0, 0, 0, 0, 0, 0, 0, 0, 0, 0, 0, 0, 0, 0, 0, 0, 0, 0, 0, 0, 0, 0, 0, 0, 0, 0, 0, 0, 0, 0, 0, 0, 0, 0, 0, 0, 0, 0, 0, 0, 0, 0, 0, 0
0, 0, 2, 0, 0, 0, 0, 1, 0, 0, 0, 0, 1, 0, 1, 2, 3, 1, 2, 1, 0, 2, 5, 2, 1, 1, 2, 2, 1, 1, 4, 4, 2, 2, 1, 3, 0, 2, 1, 2, 2, 2, 0, 0, 1, 0, 0, 0, 0, 0, 0, 0, 0, 0, 0, 0, 0, 0, 0, 0, 0, 0, 0, 0, 0, 0, 0, 0, 0, 0, 0, 0, 0, 0, 0, 0, 0, 0, 0, 0, 0, 0, 0, 0, 0, 0, 0, 0, 0, 0, 0, 0, 0, 0, 0, 0, 0, 0, 0, 0, 0, 0, 0, 0, 0, 0
0, 0, 3, 2, 0, 0, 0, 0, 0, 0, 0, 0, 0, 1, 0, 0, 0, 0, 2, 3, 5, 5, 1, 4, 2, 5, 5, 5, 1, 3, 1, 2, 0, 3, 2, 5, 4, 1, 0, 2, 0, 1, 1, 0, 0, 0, 0, 0, 0, 0, 0, 0, 0, 0, 0, 0, 0, 0, 0, 0, 0, 0, 0, 0, 0, 0, 0, 0, 0, 0, 0, 0, 0, 0, 0, 0, 0, 0, 0, 0, 0, 0, 0, 0, 0, 0, 0, 0, 0, 0, 0, 0, 0, 0, 0, 0, 0, 0, 0, 0, 0, 0, 0, 0, 0, 0
0, 0, 4, 2, 0, 0, 0, 0, 0, 0, 0, 0, 1, 2, 2, 4, 2, 1, 0, 2, 2, 4, 1, 5, 1, 2, 6, 5, 5, 2, 3, 0, 3, 2, 1, 1, 1, 2, 1, 4, 5, 0, 1, 0, 2, 1, 0, 0, 0, 0, 0, 0, 0, 0, 0, 0, 0, 0, 0, 0, 0, 0, 0, 0, 0, 0, 0, 0, 0, 0, 0, 0, 0, 0, 0, 0, 0, 0, 0, 0, 0, 0, 0, 0, 0, 0, 0, 0, 0, 0, 0, 0, 0, 0, 0, 0, 0, 0, 0, 0, 0, 0, 0, 0, 0, 0
0, 0, 5, 2, 2, 3, 9, 10, 19, 26, 60, 46, 56, 65, 75, 108, 100, 78, 106, 97, 90, 88, 107, 112, 95, 107, 95, 96, 100, 103, 93, 91, 85, 78, 82, 71, 41, 50, 54, 40, 51, 32, 25, 23, 12, 15, 0, 0, 0, 0, 0, 0, 0, 0, 0, 0, 0, 0, 0, 0, 0, 0, 0, 0, 0, 0, 0, 0, 0, 0, 0, 0, 0, 0, 0, 0, 0, 0, 0, 0, 0, 0, 0, 0, 0, 0, 0, 0, 0, 0, 0, 0, 0, 0, 0, 0, 0, 0, 0, 0, 0, 0, 0, 0, 0, 0
0, 0, 6, 7, 3, 6, 14, 26, 42, 58, 130, 98, 99, 121, 164, 218, 217, 211, 222, 250, 244, 271, 205, 246, 249, 271, 241, 225, 206, 216, 175, 177, 143, 165, 163, 149, 140, 102, 117, 107, 83, 76, 72, 67, 50, 19, 3, 0, 0, 0, 0, 0, 0, 0, 0, 0, 0, 0, 0, 0, 0, 0, 0, 0, 0, 0, 0, 0, 0, 0, 0, 0, 0, 0, 0, 0, 0, 0, 0, 0, 0, 0, 0, 0, 0, 0, 0, 0, 0, 0, 0, 0, 0, 0, 0, 0, 0, 0, 0, 0, 0, 0, 0, 0, 0, 0
0, 0, 7, 1, 5, 5, 11, 27, 34, 53, 130, 109, 123, 128, 177, 218, 206, 252, 244, 248, 250, 257, 246, 275, 252, 228, 218, 224, 202, 199, 215, 237, 177, 155, 167, 145, 141, 121, 110, 111, 98, 53, 76, 44, 33, 29, 2, 0, 0, 0, 0, 0, 0, 0, 0, 0, 0, 0, 0, 0, 0, 0, 0, 0, 0, 0, 0, 0, 0, 0, 0, 0, 0, 0, 0, 0, 0, 0, 0, 0, 0, 0, 0, 0, 0, 0, 0, 0, 0, 0, 0, 0, 0, 0, 0, 0, 0, 0, 0, 0, 0, 0, 0, 0, 0, 0
0, 0, 8, 0, 7, 6, 22, 25, 38, 53, 117, 102, 115, 147, 185, 223, 210, 220, 205, 268, 261, 258, 248, 246, 258, 236, 222, 217, 211, 198, 230, 190, 178, 169, 137, 171, 132, 106, 129, 117, 85, 82, 59, 72, 37, 32, 1, 0, 0, 0, 0, 0, 0, 0, 0, 0, 0, 0, 0, 0, 0, 0, 0, 0, 0, 0, 0, 0, 0, 0, 0, 0, 0, 0, 0, 0, 0, 0, 0, 0, 0, 0, 0, 0, 0, 0, 0, 0, 0, 0, 0, 0, 0, 0, 0, 0, 0, 0, 0, 0, 0, 0, 0, 0, 0, 0
0, 0, 9, 4, 2, 7, 10, 36, 28, 53, 123, 98, 110, 158, 147, 217, 219, 206, 239, 223, 270, 247, 246, 217, 245, 232, 236, 211, 226, 221, 200, 164, 191, 177, 163, 177, 153, 141, 120, 90, 80, 65, 72, 44, 47, 14, 1, 0, 0, 0, 0, 0, 0, 0, 0, 0, 0, 0, 0, 0, 0, 0, 0, 0, 0, 0, 0, 0, 0, 0, 0, 0, 0, 0, 0, 0, 0, 0, 0, 0, 0, 0, 0, 0, 0, 0, 0, 0, 0, 0, 0, 0, 0, 0, 0, 0, 0, 0, 0, 0, 0, 0, 0, 0, 0, 0
0, 0, 10, 0, 1, 1, 12, 29, 37, 59, 113, 119, 118, 140, 176, 191, 193, 223, 228, 249, 239, 255, 251, 222, 268, 270, 221, 220, 240, 215, 198, 173, 178, 178, 161, 156, 137, 138, 105, 104, 83, 83, 70, 59, 39, 21, 1, 0, 0, 0, 0, 0, 0, 0, 0, 0, 0, 0, 0, 0, 0, 0, 0, 0, 0, 0, 0, 0, 0, 0, 0, 0, 0, 0, 0, 0, 0, 0, 0, 0, 0, 0, 0, 0, 0, 0, 0, 0, 0, 0, 0, 0, 0, 0, 0, 0, 0, 0, 0, 0, 0, 0, 0, 0, 0, 0
0, 0, 11, 3, 1, 12, 15, 35, 45, 49, 123, 109, 120, 135, 172, 205, 201, 229, 224, 261, 224, 222, 265, 241, 226, 244, 219, 236, 251, 176, 191, 189, 188, 155, 155, 138, 127, 144, 116, 103, 91, 101, 65, 49, 40, 21, 1, 0, 0, 0, 0, 0, 0, 0, 0, 0, 0, 0, 0, 0, 0, 0, 0, 0, 0, 0, 0, 0, 0, 0, 0, 0, 0, 0, 0, 0, 0, 0, 0, 0, 0, 0, 0, 0, 0, 0, 0, 0, 0, 0, 0, 0, 0, 0, 0, 0, 0, 0, 0, 0, 0, 0, 0, 0, 0, 0
0, 0, 12, 12, 6, 6, 17, 18, 52, 64, 125, 85, 117, 137, 178, 193, 181, 250, 257, 261, 250, 262, 270, 245, 260, 229, 241, 221, 181, 198, 239, 221, 185, 159, 181, 150, 109, 120, 117, 114, 94, 84, 81, 60, 39, 25, 2, 0, 0, 0, 0, 0, 0, 0, 0, 0, 0, 0, 0, 0, 0, 0, 0, 0, 0, 0, 0, 0, 0, 0, 0, 0, 0, 0, 0, 0, 0, 0, 0, 0, 0, 0, 0, 0, 0, 0, 0, 0, 0, 0, 0, 0, 0, 0, 0, 0, 0, 0, 0, 0, 0, 0, 0, 0, 0, 0
0, 0, 13, 1, 2, 8, 22, 25, 33, 63, 120, 102, 114, 134, 193, 185, 201, 190, 232, 239, 231, 238, 292, 266, 260, 236, 210, 184, 205, 198, 170, 197, 189, 151, 157, 127, 134, 137, 133, 92, 95, 82, 76, 67, 37, 18, 2, 0, 0, 0, 0, 0, 0, 0, 0, 0, 0, 0, 0, 0, 0, 0, 0, 0, 0, 0, 0, 0, 0, 0, 0, 0, 0, 0, 0, 0, 0, 0, 0, 0, 0, 0, 0, 0, 0, 0, 0, 0, 0, 0, 0, 0, 0, 0, 0, 0, 0, 0, 0, 0, 0, 0, 0, 0, 0, 0
0, 0, 14, 0, 3, 9, 15, 32, 41, 62, 140, 88, 103, 131, 173, 200, 214, 198, 231, 250, 284, 233, 245, 214, 233, 238, 241, 227, 196, 216, 185, 166, 213, 155, 156, 117, 134, 121, 113, 107, 90, 85, 68, 48, 33, 23, 1, 0, 0, 0, 0, 0, 0, 0, 0, 0, 0, 0, 0, 0, 0, 0, 0, 0, 0, 0, 0, 0, 0, 0, 0, 0, 0, 0, 0, 0, 0, 0, 0, 0, 0, 0, 0, 0, 0, 0, 0, 0, 0, 0, 0, 0, 0, 0, 0, 0, 0, 0, 0, 0, 0, 0, 0, 0, 0, 0
0, 0, 15, 4, 2, 7, 19, 19, 44, 56, 116, 84, 113, 115, 185, 193, 207, 208, 230, 240, 258, 243, 220, 214, 263, 221, 206, 231, 222, 226, 203, 199, 164, 164, 142, 166, 134, 139, 116, 103, 104, 101, 53, 59, 32, 16, 2, 0, 0, 0, 0, 0, 0, 0, 0, 0, 0, 0, 0, 0, 0, 0, 0, 0, 0, 0, 0, 0, 0, 0, 0, 0, 0, 0, 0, 0, 0, 0, 0, 0, 0, 0, 0, 0, 0, 0, 0, 0, 0, 0, 0, 0, 0, 0, 0, 0, 0, 0, 0, 0, 0, 0, 0, 0, 0, 0
0, 0, 16, 4, 6, 7, 15, 25, 45, 45, 99, 87, 108, 133, 167, 196, 212, 221, 228, 238, 265, 246, 230, 261, 244, 241, 210, 232, 226, 208, 169, 199, 193, 174, 169, 135, 155, 145, 119, 105, 85, 64, 63, 54, 30, 20, 2, 0, 0, 0, 0, 0, 0, 0, 0, 0, 0, 0, 0, 0, 0, 0, 0, 0, 0, 0, 0, 0, 0, 0, 0, 0, 0, 0, 0, 0, 0, 0, 0, 0, 0, 0, 0, 0, 0, 0, 0, 0, 0, 0, 0, 0, 0, 0, 0, 0, 0, 0, 0, 0, 0, 0, 0, 0, 0, 0
0, 0, 17, 8, 1, 11, 17, 25, 36, 55, 126, 80, 115, 138, 150, 177, 206, 226, 234, 211, 240, 252, 255, 270, 241, 231, 199, 242, 231, 212, 238, 188, 166, 160, 153, 149, 146, 116, 106, 117, 96, 71, 76, 37, 47, 18, 0, 0, 0, 0, 0, 0, 0, 0, 0, 0, 0, 0, 0, 0, 0, 0, 0, 0, 0, 0, 0, 0, 0, 0, 0, 0, 0, 0, 0, 0, 0, 0, 0, 0, 0, 0, 0, 0, 0, 0, 0, 0, 0, 0, 0, 0, 0, 0, 0, 0, 0, 0, 0, 0, 0, 0, 0, 0, 0, 0
0, 0, 18, 5, 6, 9, 13, 20, 39, 60, 117, 78, 121, 148, 184, 197, 222, 206, 251, 276, 236, 262, 247, 262, 231, 237, 217, 243, 197, 224, 165, 204, 171, 149, 140, 166, 139, 135, 118, 110, 107, 101, 54, 65, 38, 18, 3, 0, 0, 0, 0, 0, 0, 0, 0, 0, 0, 0, 0, 0, 0, 0, 0, 0, 0, 0, 0, 0, 0, 0, 0, 0, 0, 0, 0, 0, 0, 0, 0, 0, 0, 0, 0, 0, 0, 0, 0, 0, 0, 0, 0, 0, 0, 0, 0, 0, 0, 0, 0, 0, 0, 0, 0, 0, 0, 0
0, 0, 19, 3, 3, 12, 14, 26, 43, 64, 123, 101, 138, 129, 170, 185, 199, 221, 242, 235, 258, 266, 239, 240, 248, 227, 204, 183, 212, 203, 205, 189, 186, 168, 167, 136, 117, 106, 112, 104, 86, 83, 55, 50, 40, 18, 1, 0, 0, 0, 0, 0, 0, 0, 0, 0, 0, 0, 0, 0, 0, 0, 0, 0, 0, 0, 0, 0, 0, 0, 0, 0, 0, 0, 0, 0, 0, 0, 0, 0, 0, 0, 0, 0, 0, 0, 0, 0, 0, 0, 0, 0, 0, 0, 0, 0, 0, 0, 0, 0, 0, 0, 0, 0, 0, 0
0, 0, 20, 4, 4, 9, 19, 24, 50, 48, 111, 110, 136, 148, 170, 197, 187, 231, 203, 223, 252, 241, 306, 250, 235, 272, 238, 246, 232, 208, 187, 182, 164, 155, 165, 147, 126, 128, 126, 106, 89, 65, 68, 59, 36, 17, 2, 0, 0, 0, 0, 0, 0, 0, 0, 0, 0, 0, 0, 0, 0, 0, 0, 0, 0, 0, 0, 0, 0, 0, 0, 0, 0, 0, 0, 0, 0, 0, 0, 0, 0, 0, 0, 0, 0, 0, 0, 0, 0, 0, 0, 0, 0, 0, 0, 0, 0, 0, 0, 0, 0, 0, 0, 0, 0, 0
0, 0, 21, 0, 9, 10, 14, 24, 40, 56, 97, 104, 105, 143, 173, 194, 212, 221, 218, 246, 254, 252, 241, 257, 225, 239, 229, 215, 254, 225, 170, 193, 189, 196, 177, 140, 134, 129, 123, 91, 112, 85, 66, 62, 38, 30, 0, 0, 0, 0, 0, 0, 0, 0, 0, 0, 0, 0, 0, 0, 0, 0, 0, 0, 0, 0, 0, 0, 0, 0, 0, 0, 0, 0, 0, 0, 0, 0, 0, 0, 0, 0, 0, 0, 0, 0, 0, 0, 0, 0, 0, 0, 0, 0, 0, 0, 0, 0, 0, 0, 0, 0, 0, 0, 0, 0
0, 0, 22, 4, 8, 9, 18, 33, 43, 70, 92, 88, 132, 143, 176, 186, 202, 201, 219, 249, 247, 249, 237, 266, 255, 265, 209, 239, 257, 218, 217, 202, 174, 178, 156, 152, 142, 154, 117, 97, 83, 85, 67, 46, 44, 24, 0, 0, 0, 0, 0, 0, 0, 0, 0, 0, 0, 0, 0, 0, 0, 0, 0, 0, 0, 0, 0, 0, 0, 0, 0, 0, 0, 0, 0, 0, 0, 0, 0, 0, 0, 0, 0, 0, 0, 0, 0, 0, 0, 0, 0, 0, 0, 0, 0, 0, 0, 0, 0, 0, 0, 0, 0, 0, 0, 0
0, 0, 23, 2, 0, 9, 22, 15, 41, 61, 124, 111, 117, 140, 159, 191, 172, 235, 237, 255, 253, 250, 267, 267, 246, 203, 242, 236, 197, 202, 201, 180, 165, 156, 142, 138, 126, 136, 135, 97, 74, 77, 68, 58, 21, 22, 1, 0, 0, 0, 0, 0, 0, 0, 0, 0, 0, 0, 0, 0, 0, 0, 0, 0, 0, 0, 0, 0, 0, 0, 0, 0, 0, 0, 0, 0, 0, 0, 0, 0, 0, 0, 0, 0, 0, 0, 0, 0, 0, 0, 0, 0, 0, 0, 0, 0, 0, 0, 0, 0, 0, 0, 0, 0, 0, 0
0, 0, 24, 4, 3, 5, 17, 16, 42, 55, 132, 73, 115, 136, 155, 197, 211, 178, 222, 272, 223, 236, 218, 284, 260, 261, 251, 229, 242, 213, 210, 169, 163, 186, 151, 145, 125, 122, 103, 104, 103, 75, 56, 61, 47, 24, 4, 0, 0, 0, 0, 0, 0, 0, 0, 0, 0, 0, 0, 0, 0, 0, 0, 0, 0, 0, 0, 0, 0, 0, 0, 0, 0, 0, 0, 0, 0, 0, 0, 0, 0, 0, 0, 0, 0, 0, 0, 0, 0, 0, 0, 0, 0, 0, 0, 0, 0, 0, 0, 0, 0, 0, 0, 0, 0, 0
0, 0, 25, 0, 3, 11, 13, 23, 42, 67, 111, 87, 97, 158, 159, 225, 210, 225, 233, 258, 234, 253, 268, 258, 260, 238, 244, 250, 222, 210, 223, 180, 166, 175, 147, 152, 137, 107, 114, 110, 107, 86, 73, 52, 48, 18, 1, 0, 0, 0, 0, 0, 0, 0, 0, 0, 0, 0, 0, 0, 0, 0, 0, 0, 0, 0, 0, 0, 0, 0, 0, 0, 0, 0, 0, 0, 0, 0, 0, 0, 0, 0, 0, 0, 0, 0, 0, 0, 0, 0, 0, 0, 0, 0, 0, 0, 0, 0, 0, 0, 0, 0, 0, 0, 0, 0
0, 0, 26, 2, 6, 6, 18, 21, 50, 68, 130, 96, 117, 136, 189, 187, 200, 198, 197, 253, 242, 225, 239, 249, 219, 263, 219, 221, 187, 224, 209, 170, 160, 151, 169, 151, 147, 108, 93, 92, 93, 81, 72, 65, 48, 14, 0, 0, 0, 0, 0, 0, 0, 0, 0, 0, 0, 0, 0, 0, 0, 0, 0, 0, 0, 0, 0, 0, 0, 0, 0, 0, 0, 0, 0, 0, 0, 0, 0, 0, 0, 0, 0, 0, 0, 0, 0, 0, 0, 0, 0, 0, 0, 0, 0, 0, 0, 0, 0, 0, 0, 0, 0, 0, 0, 0
0, 0, 27, 5, 5, 10, 21, 23, 35, 58, 122, 114, 130, 148, 152, 197, 227, 185, 225, 275, 258, 240, 213, 247, 265, 207, 226, 225, 208, 228, 215, 175, 167, 168, 153, 161, 142, 125, 134, 115, 89, 84, 56, 43, 36, 22, 0, 0, 0, 0, 0, 0, 0, 0, 0, 0, 0, 0, 0, 0, 0, 0, 0, 0, 0, 0, 0, 0, 0, 0, 0, 0, 0, 0, 0, 0, 0, 0, 0, 0, 0, 0, 0, 0, 0, 0, 0, 0, 0, 0, 0, 0, 0, 0, 0, 0, 0, 0, 0, 0, 0, 0, 0, 0, 0, 0
0, 0, 28, 2, 8, 8, 17, 27, 31, 51, 113, 81, 112, 123, 192, 178, 207, 167, 235, 243, 251, 256, 225, 257, 243, 216, 243, 236, 236, 220, 210, 196, 184, 173, 131, 164, 127, 139, 126, 106, 110, 78, 67, 58, 34, 22, 1, 0, 0, 0, 0, 0, 0, 0, 0, 0, 0, 0, 0, 0, 0, 0, 0, 0, 0, 0, 0, 0, 0, 0, 0, 0, 0, 0, 0, 0, 0, 0, 0, 0, 0, 0, 0, 0, 0, 0, 0, 0, 0, 0, 0, 0, 0, 0, 0, 0, 0, 0, 0, 0, 0, 0, 0, 0, 0, 0
0, 0, 29, 3, 3, 9, 16, 20, 42, 49, 120, 83, 113, 134, 173, 208, 178, 212, 227, 237, 223, 243, 243, 249, 225, 236, 237, 248, 223, 214, 177, 172, 162, 213, 156, 159, 126, 141, 117, 97, 90, 66, 60, 56, 39, 26, 0, 0, 0, 0, 0, 0, 0, 0, 0, 0, 0, 0, 0, 0, 0, 0, 0, 0, 0, 0, 0, 0, 0, 0, 0, 0, 0, 0, 0, 0, 0, 0, 0, 0, 0, 0, 0, 0, 0, 0, 0, 0, 0, 0, 0, 0, 0, 0, 0, 0, 0, 0, 0, 0, 0, 0, 0, 0, 0, 0
0, 0, 30, 1, 4, 9, 13, 25, 32, 47, 123, 85, 121, 137, 172, 188, 196, 204, 236, 251, 240, 242, 259, 254, 241, 220, 251, 204, 233, 189, 191, 202, 190, 176, 162, 141, 137, 123, 87, 115, 94, 87, 59, 36, 42, 18, 1, 0, 0, 0, 0, 0, 0, 0, 0, 0, 0, 0, 0, 0, 0, 0, 0, 0, 0, 0, 0, 0, 0, 0, 0, 0, 0, 0, 0, 0, 0, 0, 0, 0, 0, 0, 0, 0, 0, 0, 0, 0, 0, 0, 0, 0, 0, 0, 0, 0, 0, 0, 0, 0, 0, 0, 0, 0, 0, 0
0, 0, 31, 7, 2, 11, 21, 22, 34, 57, 111, 77, 116, 141, 183, 183, 220, 238, 203, 232, 243, 258, 250, 260, 214, 221, 256, 213, 212, 217, 199, 185, 144, 150, 163, 153, 152, 126, 136, 105, 105, 76, 67, 54, 52, 12, 4, 0, 0, 0, 0, 0, 0, 0, 0, 0, 0, 0, 0, 0, 0, 0, 0, 0, 0, 0, 0, 0, 0, 0, 0, 0, 0, 0, 0, 0, 0, 0, 0, 0, 0, 0, 0, 0, 0, 0, 0, 0, 0, 0, 0, 0, 0, 0, 0, 0, 0, 0, 0, 0, 0, 0, 0, 0, 0, 0
0, 0, 32, 2, 4, 8, 19, 30, 36, 55, 113, 92, 117, 148, 169, 206, 186, 211, 221, 236, 256, 278, 307, 250, 256, 208, 253, 232, 211, 241, 180, 184, 169, 163, 167, 139, 152, 119, 123, 107, 69, 85, 69, 51, 41, 26, 2, 0, 0, 0, 0, 0, 0, 0, 0, 0, 0, 0, 0, 0, 0, 0, 0, 0, 0, 0, 0, 0, 0, 0, 0, 0, 0, 0, 0, 0, 0, 0, 0, 0, 0, 0, 0, 0, 0, 0, 0, 0, 0, 0, 0, 0, 0, 0, 0, 0, 0, 0, 0, 0, 0, 0, 0, 0, 0, 0
0, 0, 33, 2, 4, 13, 14, 25, 38, 63, 117, 88, 116, 132, 160, 208, 197, 198, 200, 241, 282, 252, 273, 208, 248, 193, 239, 210, 205, 236, 209, 176, 180, 193, 150, 166, 151, 112, 111, 104, 96, 70, 59, 57, 61, 26, 0, 0, 0, 0, 0, 0, 0, 0, 0, 0, 0, 0, 0, 0, 0, 0, 0, 0, 0, 0, 0, 0, 0, 0, 0, 0, 0, 0, 0, 0, 0, 0, 0, 0, 0, 0, 0, 0, 0, 0, 0, 0, 0, 0, 0, 0, 0, 0, 0, 0, 0, 0, 0, 0, 0, 0, 0, 0, 0, 0
0, 0, 34, 4, 2, 7, 9, 32, 32, 51, 114, 93, 115, 132, 189, 225, 210, 214, 224, 233, 253, 271, 238, 259, 243, 254, 257, 225, 214, 220, 176, 202, 168, 176, 124, 160, 147, 126, 114, 103, 109, 84, 56, 66, 46, 27, 1, 0, 0, 0, 0, 0, 0, 0, 0, 0, 0, 0, 0, 0, 0, 0, 0, 0, 0, 0, 0, 0, 0, 0, 0, 0, 0, 0, 0, 0, 0, 0, 0, 0, 0, 0, 0, 0, 0, 0, 0, 0, 0, 0, 0, 0, 0, 0, 0, 0, 0, 0, 0, 0, 0, 0, 0, 0, 0, 0
0, 0, 35, 0, 4, 7, 7, 20, 37, 48, 128, 90, 123, 150, 178, 200, 181, 223, 221, 238, 241, 225, 234, 256, 243, 249, 252, 243, 223, 182, 213, 196, 200, 166, 172, 122, 111, 126, 96, 105, 104, 79, 68, 54, 26, 19, 0, 0, 0, 0, 0, 0, 0, 0, 0, 0, 0, 0, 0, 0, 0, 0, 0, 0, 0, 0, 0, 0, 0, 0, 0, 0, 0, 0, 0, 0, 0, 0, 0, 0, 0, 0, 0, 0, 0, 0, 0, 0, 0, 0, 0, 0, 0, 0, 0, 0, 0, 0, 0, 0, 0, 0, 0, 0, 0, 0
0, 0, 36, 6, 7, 10, 18, 21, 30, 45, 112, 98, 120, 139, 161, 198, 198, 215, 224, 211, 237, 281, 269, 245, 253, 228, 280, 244, 210, 227, 206, 179, 180, 160, 159, 133, 157, 132, 114, 112, 85, 73, 68, 48, 47, 16, 2, 0, 0, 0, 0, 0, 0, 0, 0, 0, 0, 0, 0, 0, 0, 0, 0, 0, 0, 0, 0, 0, 0, 0, 0, 0, 0, 0, 0, 0, 0, 0, 0, 0, 0, 0, 0, 0, 0, 0, 0, 0, 0, 0, 0, 0, 0, 0, 0, 0, 0, 0, 0, 0, 0, 0, 0, 0, 0, 0
0, 0, 37, 4, 10, 5, 17, 21, 40, 59, 135, 110, 117, 142, 166, 187, 174, 188, 224, 270, 222, 221, 272, 290, 240, 241, 224, 215, 217, 213, 210, 179, 193, 178, 181, 135, 141, 124, 131, 100, 85, 83, 86, 51, 46, 14, 0, 0, 0, 0, 0, 0, 0, 0, 0, 0, 0, 0, 0, 0, 0, 0, 0, 0, 0, 0, 0, 0, 0, 0, 0, 0, 0, 0, 0, 0, 0, 0, 0, 0, 0, 0, 0, 0, 0, 0, 0, 0, 0, 0, 0, 0, 0, 0, 0, 0, 0, 0, 0, 0, 0, 0, 0, 0, 0, 0
0, 0, 38, 1, 7, 8, 15, 19, 43, 55, 130, 101, 118, 134, 169, 200, 194, 210, 199, 241, 249, 257, 247, 255, 226, 215, 246, 243, 201, 214, 196, 200, 182, 192, 176, 139, 121, 127, 122, 92, 101, 87, 59, 54, 35, 29, 2, 0, 0, 0, 0, 0, 0, 0, 0, 0, 0, 0, 0, 0, 0, 0, 0, 0, 0, 0, 0, 0, 0, 0, 0, 0, 0, 0, 0, 0, 0, 0, 0, 0, 0, 0, 0, 0, 0, 0, 0, 0, 0, 0, 0, 0, 0, 0, 0, 0, 0, 0, 0, 0, 0, 0, 0, 0, 0, 0
0, 0, 39, 1, 3, 9, 11, 24, 38, 39, 116, 90, 105, 126, 169, 234, 194, 215, 224, 262, 254, 212, 238, 258, 212, 231, 215, 206, 215, 206, 203, 220, 176, 204, 167, 129, 127, 117, 114, 117, 98, 67, 77, 47, 27, 22, 3, 0, 0, 0, 0, 0, 0, 0, 0, 0, 0, 0, 0, 0, 0, 0, 0, 0, 0, 0, 0, 0, 0, 0, 0, 0, 0, 0, 0, 0, 0, 0, 0, 0, 0, 0, 0, 0, 0, 0, 0, 0, 0, 0, 0, 0, 0, 0, 0, 0, 0, 0, 0, 0, 0, 0, 0, 0, 0, 0
0, 0, 40, 4, 4, 9, 15, 21, 34, 41, 125, 95, 115, 165, 182, 167, 224, 236, 241, 218, 263, 240, 219, 203, 236, 268, 213, 191, 231, 202, 194, 186, 169, 178, 148, 155, 136, 140, 118, 111, 95, 79, 66, 57, 52, 24, 3, 0, 0, 0, 0, 0, 0, 0, 0, 0, 0, 0, 0, 0, 0, 0, 0, 0, 0, 0, 0, 0, 0, 0, 0, 0, 0, 0, 0, 0, 0, 0, 0, 0, 0, 0, 0, 0, 0, 0, 0, 0, 0, 0, 0, 0, 0, 0, 0, 0, 0, 0, 0, 0, 0, 0, 0, 0, 0, 0
0, 0, 41, 0, 2, 7, 15, 19, 33, 52, 108, 86, 108, 147, 149, 190, 189, 217, 221, 241, 194, 247, 216, 200, 225, 224, 221, 197, 229, 187, 208, 167, 190, 154, 168, 140, 121, 111, 112, 83, 94, 73, 55, 58, 21, 19, 0, 0, 0, 0, 0, 0, 0, 0, 0, 0, 0, 0, 0, 0, 0, 0, 0, 0, 0, 0, 0, 0, 0, 0, 0, 0, 0, 0, 0, 0, 0, 0, 0, 0, 0, 0, 0, 0, 0, 0, 0, 0, 0, 0, 0, 0, 0, 0, 0, 0, 0, 0, 0, 0, 0, 0, 0, 0, 0, 0
0, 0, 42, 0, 3, 3, 12, 16, 26, 34, 66, 78, 90, 123, 128, 135, 124, 178, 156, 184, 182, 162, 165, 183, 159, 164, 191, 187, 174, 178, 151, 149, 157, 131, 129, 113, 100, 89, 98, 71, 65, 46, 57, 43, 43, 12, 0, 0, 0, 0, 0, 0, 0, 0, 0, 0, 0, 0, 0, 0, 0, 0, 0, 0, 0, 0, 0, 0, 0, 0, 0, 0, 0, 0, 0, 0, 0, 0, 0, 0, 0, 0, 0, 0, 0, 0, 0, 0, 0, 0, 0, 0, 0, 0, 0, 0, 0, 0, 0, 0, 0, 0, 0, 0, 0, 0
0, 0, 43, 2, 2, 2, 11, 20, 24, 25, 63, 60, 71, 79, 88, 137, 127, 123, 138, 156, 152, 142, 155, 148, 138, 174, 137, 147, 148, 128, 136, 118, 117, 112, 110, 109, 81, 99, 67, 75, 55, 56, 41, 31, 30, 12, 1, 0, 0, 0, 0, 0, 0, 0, 0, 0, 0, 0, 0, 0, 0, 0, 0, 0, 0, 0, 0, 0, 0, 0, 0, 0, 0, 0, 0, 0, 0, 0, 0, 0, 0, 0, 0, 0, 0, 0, 0, 0, 0, 0, 0, 0, 0, 0, 0, 0, 0, 0, 0, 0, 0, 0, 0, 0, 0, 0
0, 0, 44, 3, 1, 3, 9, 12, 13, 19, 48, 29, 50, 71, 74, 86, 98, 83, 93, 110, 139, 150, 113, 130, 141, 128, 110, 118, 105, 99, 108, 102, 104, 81, 80, 74, 88, 82, 68, 67, 47, 35, 28, 27, 18, 15, 0, 0, 0, 0, 0, 0, 0, 0, 0, 0, 0, 0, 0, 0, 0, 0, 0, 0, 0, 0, 0, 0, 0, 0, 0, 0, 0, 0, 0, 0, 0, 0, 0, 0, 0, 0, 0, 0, 0, 0, 0, 0, 0, 0, 0, 0, 0, 0, 0, 0, 0, 0, 0, 0, 0, 0, 0, 0, 0, 0
0, 0, 45, 2, 0, 5, 3, 6, 11, 13, 35, 18, 29, 42, 62, 73, 70, 82, 71, 74, 82, 93, 120, 94, 97, 101, 90, 87, 68, 90, 99, 90, 85, 82, 75, 85, 57, 72, 36, 60, 31, 35, 32, 22, 24, 11, 1, 0, 0, 0, 0, 0, 0, 0, 0, 0, 0, 0, 0, 0, 0, 0, 0, 0, 0, 0, 0, 0, 0, 0, 0, 0, 0, 0, 0, 0, 0, 0, 0, 0, 0, 0, 0, 0, 0, 0, 0, 0, 0, 0, 0, 0, 0, 0, 0, 0, 0, 0, 0, 0, 0, 0, 0, 0, 0, 0
0, 0, 46, 0, 1, 2, 5, 3, 4, 8, 29, 20, 26, 37, 39, 40, 54, 61, 67, 62, 71, 66, 69, 80, 80, 92, 85, 65, 84, 69, 64, 65, 66, 67, 69, 68, 67, 57, 43, 38, 34, 30, 36, 24, 11, 13, 0, 0, 0, 0, 0, 0, 0, 0, 0, 0, 0, 0, 0, 0, 0, 0, 0, 0, 0, 0, 0, 0, 0, 0, 0, 0, 0, 0, 0, 0, 0, 0, 0, 0, 0, 0, 0, 0, 0, 0, 0, 0, 0, 0, 0, 0, 0, 0, 0, 0, 0, 0, 0, 0, 0, 0, 0, 0, 0, 0
0, 0, 47, 0, 0, 0, 2, 3, 4, 6, 20, 11, 13, 18, 27, 38, 35, 40, 43, 41, 52, 47, 47, 57, 74, 55, 72, 49, 67, 46, 67, 69, 67, 69, 52, 44, 52, 31, 21, 33, 31, 24, 29, 23, 12, 9, 2, 0, 0, 0, 0, 0, 0, 0, 0, 0, 0, 0, 0, 0, 0, 0, 0, 0, 0, 0, 0, 0, 0, 0, 0, 0, 0, 0, 0, 0, 0, 0, 0, 0, 0, 0, 0, 0, 0, 0, 0, 0, 0, 0, 0, 0, 0, 0, 0, 0, 0, 0, 0, 0, 0, 0, 0, 0, 0, 0
0, 0, 48, 0, 0, 0, 1, 2, 1, 1, 15, 6, 17, 7, 15, 17, 24, 27, 45, 39, 53, 50, 51, 40, 61, 61, 44, 46, 62, 58, 37, 56, 44, 37, 44, 50, 41, 45, 39, 42, 26, 26, 16, 13, 11, 10, 0, 0, 0, 0, 0, 0, 0, 0, 0, 0, 0, 0, 0, 0, 0, 0, 0, 0, 0, 0, 0, 0, 0, 0, 0, 0, 0, 0, 0, 0, 0, 0, 0, 0, 0, 0, 0, 0, 0, 0, 0, 0, 0, 0, 0, 0, 0, 0, 0, 0, 0, 0, 0, 0, 0, 0, 0, 0, 0, 0
0, 0, 49, 4, 0, 0, 0, 0, 0, 2, 10, 5, 6, 11, 14, 12, 30, 17, 34, 38, 45, 34, 45, 44, 49, 63, 53, 49, 65, 42, 56, 47, 39, 38, 37, 43, 36, 28, 28, 28, 33, 20, 28, 15, 15, 4, 0, 0, 0, 0, 0, 0, 0, 0, 0, 0, 0, 0, 0, 0, 0, 0, 0, 0, 0, 0, 0, 0, 0, 0, 0, 0, 0, 0, 0, 0, 0, 0, 0, 0, 0, 0, 0, 0, 0, 0, 0, 0, 0, 0, 0, 0, 0, 0, 0, 0, 0, 0, 0, 0, 0, 0, 0, 0, 0, 0
0, 0, 50, 0, 0, 0, 0, 0, 2, 2, 9, 2, 6, 11, 14, 20, 35, 20, 24, 32, 42, 44, 35, 43, 37, 67, 55, 61, 59, 45, 43, 60, 49, 50, 47, 31, 33, 26, 23, 35, 29, 17, 12, 19, 10, 2, 0, 0, 0, 0, 0, 0, 0, 0, 0, 0, 0, 0, 0, 0, 0, 0, 0, 0, 0, 0, 0, 0, 0, 0, 0, 0, 0, 0, 0, 0, 0, 0, 0, 0, 0, 0, 0, 0, 0, 0, 0, 0, 0, 0, 0, 0, 0, 0, 0, 0, 0, 0, 0, 0, 0, 0, 0, 0, 0, 0
0, 0, 51, 0, 0, 0, 0, 0, 2, 1, 14, 12, 14, 16, 19, 17, 25, 29, 22, 36, 57, 45, 70, 55, 57, 50, 47, 51, 75, 37, 57, 55, 55, 51, 52, 44, 48, 38, 47, 21, 32, 24, 20, 24, 18, 6, 1, 0, 0, 0, 0, 0, 0, 0, 0, 0, 0, 0, 0, 0, 0, 0, 0, 0, 0, 0, 0, 0, 0, 0, 0, 0, 0, 0, 0, 0, 0, 0, 0, 0, 0, 0, 0, 0, 0, 0, 0, 0, 0, 0, 0, 0, 0, 0, 0, 0, 0, 0, 0, 0, 0, 0, 0, 0, 0, 0
0, 0, 52, 0, 0, 2, 1, 1, 3, 6, 14, 7, 11, 16, 25, 30, 35, 36, 44, 70, 61, 40, 60, 62, 56, 65, 59, 57, 52, 60, 55, 58, 53, 58, 61, 42, 49, 45, 39, 37, 29, 20, 14, 19, 18, 8, 2, 0, 0, 0, 0, 0, 0, 0, 0, 0, 0, 0, 0, 0, 0, 0, 0, 0, 0, 0, 0, 0, 0, 0, 0, 0, 0, 0, 0, 0, 0, 0, 0, 0, 0, 0, 0, 0, 0, 0, 0, 0, 0, 0, 0, 0, 0, 0, 0, 0, 0, 0, 0, 0, 0, 0, 0, 0, 0, 0
0, 0, 53, 2, 1, 0, 1, 9, 4, 9, 20, 14, 25, 31, 40, 30, 48, 42, 46, 76, 77, 56, 71, 83, 81, 82, 68, 62, 66, 70, 63, 54, 68, 72, 45, 56, 59, 30, 47, 29, 32, 35, 29, 26, 10, 11, 0, 0, 0, 0, 0, 0, 0, 0, 0, 0, 0, 0, 0, 0, 0, 0, 0, 0, 0, 0, 0, 0, 0, 0, 0, 0, 0, 0, 0, 0, 0, 0, 0, 0, 0, 0, 0, 0, 0, 0, 0, 0, 0, 0, 0, 0, 0, 0, 0, 0, 0, 0, 0, 0, 0, 0, 0, 0, 0, 0
0, 0, 54, 0, 2, 7, 2, 6, 9, 12, 36, 27, 45, 48, 58, 49, 65, 55, 83, 95, 91, 104, 93, 80, 88, 94, 105, 104, 101, 95, 95, 73, 78, 75, 57, 61, 70, 57, 50, 61, 36, 49, 20, 28, 28, 10, 1, 0, 0, 0, 0, 0, 0, 0, 0, 0, 0, 0, 0, 0, 0, 0, 0, 0, 0, 0, 0, 0, 0, 0, 0, 0, 0, 0, 0, 0, 0, 0, 0, 0, 0, 0, 0, 0, 0, 0, 0, 0, 0, 0, 0, 0, 0, 0, 0, 0, 0, 0, 0, 0, 0, 0, 0, 0, 0, 0
0, 0, 55, 1, 1, 0, 5, 6, 16, 24, 50, 43, 53, 59, 79, 89, 103, 90, 124, 112, 98, 125, 149, 128, 123, 112, 117, 95, 104, 119, 95, 129, 103, 88, 89, 94, 69, 60, 73, 73, 57, 59, 34, 30, 26, 13, 0, 0, 0, 0, 0, 0, 0, 0, 0, 0, 0, 0, 0, 0, 0, 0, 0, 0, 0, 0, 0, 0, 0, 0, 0, 0, 0, 0, 0, 0, 0, 0, 0, 0, 0, 0, 0, 0, 0, 0, 0, 0, 0, 0, 0, 0, 0, 0, 0, 0, 0, 0, 0, 0, 0, 0, 0, 0, 0, 0
0, 0, 56, 0, 2, 9, 6, 15, 18, 42, 58, 48, 68, 66, 112, 119, 117, 120, 133, 171, 161, 157, 166, 168, 156, 159, 153, 137, 136, 144, 120, 140, 108, 107, 95, 108, 107, 104, 76, 61, 69, 43, 40, 42, 22, 10, 0, 0, 0, 0, 0, 0, 0, 0, 0, 0, 0, 0, 0, 0, 0, 0, 0, 0, 0, 0, 0, 0, 0, 0, 0, 0, 0, 0, 0, 0, 0, 0, 0, 0, 0, 0, 0, 0, 0, 0, 0, 0, 0, 0, 0, 0, 0, 0, 0, 0, 0, 0, 0, 0, 0, 0, 0, 0, 0, 0
0, 0, 57, 2, 5, 6, 9, 15, 30, 56, 76, 56, 89, 106, 139, 150, 157, 162, 169, 195, 205, 165, 190, 199, 165, 198, 162, 172, 184, 168, 166, 138, 135, 148, 120, 98, 100, 105, 77, 80, 81, 66, 57, 46, 31, 20, 0, 0, 0, 0, 0, 0, 0, 0, 0, 0, 0, 0, 0, 0, 0, 0, 0, 0, 0, 0, 0, 0, 0, 0, 0, 0, 0, 0, 0, 0, 0, 0, 0, 0, 0, 0, 0, 0, 0, 0, 0, 0, 0, 0, 0, 0, 0, 0, 0, 0, 0, 0, 0, 0, 0, 0, 0, 0, 0, 0
0, 0, 58, 0, 3, 8, 8, 22, 27, 53, 82, 73, 112, 130, 150, 174, 188, 208, 225, 237, 224, 237, 263, 257, 210, 222, 262, 213, 189, 223, 173, 172, 162, 161, 143, 142, 114, 98, 99, 114, 89, 75, 68, 50, 38, 21, 0, 0, 0, 0, 0, 0, 0, 0, 0, 0, 0, 0, 0, 0, 0, 0, 0, 0, 0, 0, 0, 0, 0, 0, 0, 0, 0, 0, 0, 0, 0, 0, 0, 0, 0, 0, 0, 0, 0, 0, 0, 0, 0, 0, 0, 0, 0, 0, 0, 0, 0, 0, 0, 0, 0, 0, 0, 0, 0, 0
0, 0, 59, 2, 3, 4, 12, 36, 38, 55, 124, 102, 128, 125, 164, 202, 185, 218, 212, 260, 226, 236, 282, 255, 249, 252, 223, 228, 229, 207, 189, 189, 174, 167, 138, 150, 148, 124, 111, 114, 101, 75, 58, 64, 50, 18, 1, 0, 0, 0, 0, 0, 0, 0, 0, 0, 0, 0, 0, 0, 0, 0, 0, 0, 0, 0, 0, 0, 0, 0, 0, 0, 0, 0, 0, 0, 0, 0, 0, 0, 0, 0, 0, 0, 0, 0, 0, 0, 0, 0, 0, 0, 0, 0, 0, 0, 0, 0, 0, 0, 0, 0, 0, 0, 0, 0
0, 0, 60, 0, 8, 11, 16, 32, 32, 69, 130, 81, 107, 138, 177, 192, 200, 228, 219, 228, 251, 247, 245, 227, 239, 239, 235, 279, 192, 233, 192, 202, 153, 177, 177, 148, 136, 128, 99, 91, 97, 87, 71, 52, 47, 17, 2, 0, 0, 0, 0, 0, 0, 0, 0, 0, 0, 0, 0, 0, 0, 0, 0, 0, 0, 0, 0, 0, 0, 0, 0, 0, 0, 0, 0, 0, 0, 0, 0, 0, 0, 0, 0, 0, 0, 0, 0, 0, 0, 0, 0, 0, 0, 0, 0, 0, 0, 0, 0, 0, 0, 0, 0, 0, 0, 0
0, 0, 61, 6, 3, 7, 9, 30, 43, 63, 141, 101, 115, 141, 182, 171, 212, 228, 243, 232, 268, 271, 268, 243, 237, 222, 227, 220, 203, 213, 221, 183, 181, 171, 160, 177, 121, 140, 119, 119, 82, 69, 72, 57, 48, 15, 1, 0, 0, 0, 0, 0, 0, 0, 0, 0, 0, 0, 0, 0, 0, 0, 0, 0, 0, 0, 0, 0, 0, 0, 0, 0, 0, 0, 0, 0, 0, 0, 0, 0, 0, 0, 0, 0, 0, 0, 0, 0, 0, 0, 0, 0, 0, 0, 0, 0, 0, 0, 0, 0, 0, 0, 0, 0, 0, 0
0, 0, 62, 4, 4, 13, 14, 32, 52, 64, 109, 91, 114, 138, 162, 206, 213, 189, 217, 230, 249, 247, 247, 271, 246, 226, 211, 203, 211, 212, 194, 216, 169, 144, 165, 155, 138, 137, 115, 96, 113, 73, 53, 44, 50, 20, 0, 0, 0, 0, 0, 0, 0, 0, 0, 0, 0, 0, 0, 0, 0, 0, 0, 0, 0, 0, 0, 0, 0, 0, 0, 0, 0, 0, 0, 0, 0, 0, 0, 0, 0, 0, 0, 0, 0, 0, 0, 0, 0, 0, 0, 0, 0, 0, 0, 0, 0, 0, 0, 0, 0, 0, 0, 0, 0, 0
0, 0, 63, 4, 6, 11, 12, 30, 32, 66, 110, 92, 102, 147, 177, 223, 186, 205, 225, 269, 236, 292, 249, 225, 236, 223, 274, 217, 200, 225, 201, 188, 177, 151, 188, 137, 139, 158, 126, 101, 84, 87, 64, 66, 45, 27, 1, 0, 0, 0, 0, 0, 0, 0, 0, 0, 0, 0, 0, 0, 0, 0, 0, 0, 0, 0, 0, 0, 0, 0, 0, 0, 0, 0, 0, 0, 0, 0, 0, 0, 0, 0, 0, 0, 0, 0, 0, 0, 0, 0, 0, 0, 0, 0, 0, 0, 0, 0, 0, 0, 0, 0, 0, 0, 0, 0
0, 0, 64, 3, 5, 8, 12, 25, 38, 57, 90, 95, 121, 145, 141, 199, 187, 226, 232, 244, 257, 214, 266, 269, 277, 247, 243, 234, 204, 210, 192, 190, 201, 177, 173, 158, 148, 148, 136, 93, 83, 93, 66, 64, 38, 24, 3, 0, 0, 0, 0, 0, 0, 0, 0, 0, 0, 0, 0, 0, 0, 0, 0, 0, 0, 0, 0, 0, 0, 0, 0, 0, 0, 0, 0, 0, 0, 0, 0, 0, 0, 0, 0, 0, 0, 0, 0, 0, 0, 0, 0, 0, 0, 0, 0, 0, 0, 0, 0, 0, 0, 0, 0, 0, 0, 0
0, 0, 65, 1, 1, 11, 12, 27, 45, 44, 106, 93, 117, 146, 150, 195, 221, 211, 236, 236, 259, 215, 251, 275, 251, 255, 221, 227, 229, 222, 217, 209, 189, 162, 186, 141, 146, 117, 104, 96, 93, 80, 63, 51, 42, 17, 1, 0, 0, 0, 0, 0, 0, 0, 0, 0, 0, 0, 0, 0, 0, 0, 0, 0, 0, 0, 0, 0, 0, 0, 0, 0, 0, 0, 0, 0, 0, 0, 0, 0, 0, 0, 0, 0, 0, 0, 0, 0, 0, 0, 0, 0, 0, 0, 0, 0, 0, 0, 0, 0, 0, 0, 0, 0, 0, 0
0, 0, 66, 3, 2, 6, 11, 21, 39, 46, 122, 103, 101, 140, 175, 166, 232, 209, 224, 231, 233, 255, 252, 226, 257, 249, 245, 206, 214, 187, 197, 206, 172, 145, 154, 149, 152, 109, 119, 112, 80, 86, 68, 59, 34, 22, 1, 0, 0, 0, 0, 0, 0, 0, 0, 0, 0, 0, 0, 0, 0, 0, 0, 0, 0, 0, 0, 0, 0, 0, 0, 0, 0, 0, 0, 0, 0, 0, 0, 0, 0, 0, 0, 0, 0, 0, 0, 0, 0, 0, 0, 0, 0, 0, 0, 0, 0, 0, 0, 0, 0, 0, 0, 0, 0, 0
0, 0, 67, 4, 4, 11, 14, 23, 48, 62, 104, 89, 108, 146, 167, 186, 184, 232, 236, 252, 220, 213, 259, 225, 255, 243, 240, 230, 221, 214, 166, 187, 175, 155, 150, 150, 144, 135, 112, 111, 97, 74, 74, 54, 42, 24, 2, 0, 0, 0, 0, 0, 0, 0, 0, 0, 0, 0, 0, 0, 0, 0, 0, 0, 0, 0, 0, 0, 0, 0, 0, 0, 0, 0, 0, 0, 0, 0, 0, 0, 0, 0, 0, 0, 0, 0, 0, 0, 0, 0, 0, 0, 0, 0, 0, 0, 0, 0, 0, 0, 0, 0, 0, 0, 0, 0
0, 0, 68, 1, 5, 7, 8, 17, 46, 62, 107, 84, 108, 133, 157, 214, 206, 198, 237, 265, 223, 226, 275, 233, 291, 259, 228, 215, 216, 179, 173, 195, 198, 156, 152, 151, 133, 112, 100, 97, 87, 77, 61, 42, 30, 21, 1, 0, 0, 0, 0, 0, 0, 0, 0, 0, 0, 0, 0, 0, 0, 0, 0, 0, 0, 0, 0, 0, 0, 0, 0, 0, 0, 0, 0, 0, 0, 0, 0, 0, 0, 0, 0, 0, 0, 0, 0, 0, 0, 0, 0, 0, 0, 0, 0, 0, 0, 0, 0, 0, 0, 0, 0, 0, 0, 0
0, 0, 69, 10, 4, 4, 15, 24, 40, 40, 106, 85, 124, 156, 179, 204, 204, 211, 205, 215, 271, 235, 245, 264, 237, 238, 257, 218, 212, 192, 193, 189, 185, 195, 158, 126, 137, 132, 93, 120, 85, 70, 51, 54, 40, 19, 1, 0, 0, 0, 0, 0, 0, 0, 0, 0, 0, 0, 0, 0, 0, 0, 0, 0, 0, 0, 0, 0, 0, 0, 0, 0, 0, 0, 0, 0, 0, 0, 0, 0, 0, 0, 0, 0, 0, 0, 0, 0, 0, 0, 0, 0, 0, 0, 0, 0, 0, 0, 0, 0, 0, 0, 0, 0, 0, 0
0, 0, 70, 6, 5, 5, 12, 22, 33, 55, 117, 106, 118, 147, 176, 223, 238, 215, 250, 258, 231, 257, 257, 244, 218, 236, 230, 224, 237, 221, 187, 179, 165, 170, 163, 171, 130, 149, 114, 101, 111, 72, 64, 43, 35, 19, 3, 0, 0, 0, 0, 0, 0, 0, 0, 0, 0, 0, 0, 0, 0, 0, 0, 0, 0, 0, 0, 0, 0, 0, 0, 0, 0, 0, 0, 0, 0, 0, 0, 0, 0, 0, 0, 0, 0, 0, 0, 0, 0, 0, 0, 0, 0, 0, 0, 0, 0, 0, 0, 0, 0, 0, 0, 0, 0, 0
0, 0, 71, 2, 1, 5, 14, 18, 44, 54, 126, 82, 122, 159, 156, 188, 236, 206, 242, 229, 238, 263, 244, 255, 250, 227, 227, 225, 209, 218, 203, 196, 208, 152, 163, 172, 139, 137, 127, 106, 98, 73, 84, 53, 40, 16, 0, 0, 0, 0, 0, 0, 0, 0, 0, 0, 0, 0, 0, 0, 0, 0, 0, 0, 0, 0, 0, 0, 0, 0, 0, 0, 0, 0, 0, 0, 0, 0, 0, 0, 0, 0, 0, 0, 0, 0, 0, 0, 0, 0, 0, 0, 0, 0, 0, 0, 0, 0, 0, 0, 0, 0, 0, 0, 0, 0
0, 0, 72, 3, 5, 7, 12, 20, 44, 56, 112, 85, 89, 167, 171, 221, 185, 182, 221, 233, 243, 239, 286, 260, 223, 249, 208, 235, 244, 211, 212, 147, 167, 167, 147, 164, 124, 109, 129, 106, 76, 91, 81, 59, 37, 28, 0, 0, 0, 0, 0, 0, 0, 0, 0, 0, 0, 0, 0, 0, 0, 0, 0, 0, 0, 0, 0, 0, 0, 0, 0, 0, 0, 0, 0, 0, 0, 0, 0, 0, 0, 0, 0, 0, 0, 0, 0, 0, 0, 0, 0, 0, 0, 0, 0, 0, 0, 0, 0, 0, 0, 0, 0, 0, 0, 0
0, 0, 73, 0, 1, 12, 25, 32, 38, 61, 117, 79, 112, 129, 184, 235, 201, 229, 250, 265, 268, 217, 238, 243, 244, 240, 206, 238, 232, 222, 220, 186, 169, 172, 145, 142, 159, 127, 112, 126, 72, 65, 77, 58, 39, 25, 1, 0, 0, 0, 0, 0, 0, 0, 0, 0, 0, 0, 0, 0, 0, 0, 0, 0, 0, 0, 0, 0, 0, 0, 0, 0, 0, 0, 0, 0, 0, 0, 0, 0, 0, 0, 0, 0, 0, 0, 0, 0, 0, 0, 0, 0, 0, 0, 0, 0, 0, 0, 0, 0, 0, 0, 0, 0, 0, 0
0, 0, 74, 3, 5, 9, 13, 35, 51, 58, 116, 82, 120, 140, 178, 192, 185, 201, 252, 247, 239, 250, 232, 220, 247, 212, 246, 257, 241, 233, 189, 186, 202, 178, 152, 148, 134, 119, 115, 106, 72, 82, 75, 59, 47, 16, 1, 0, 0, 0, 0, 0, 0, 0, 0, 0, 0, 0, 0, 0, 0, 0, 0, 0, 0, 0, 0, 0, 0, 0, 0, 0, 0, 0, 0, 0, 0, 0, 0, 0, 0, 0, 0, 0, 0, 0, 0, 0, 0, 0, 0, 0, 0, 0, 0, 0, 0, 0, 0, 0, 0, 0, 0, 0, 0, 0
0, 0, 75, 4, 2, 4, 14, 21, 38, 79, 113, 82, 110, 147, 179, 225, 189, 227, 228, 254, 258, 241, 246, 252, 251, 254, 242, 227, 243, 203, 216, 167, 174, 168, 148, 136, 149, 104, 136, 108, 95, 91, 80, 61, 37, 20, 3, 0, 0, 0, 0, 0, 0, 0, 0, 0, 0, 0, 0, 0, 0, 0, 0, 0, 0, 0, 0, 0, 0, 0, 0, 0, 0, 0, 0, 0, 0, 0, 0, 0, 0, 0, 0, 0, 0, 0, 0, 0, 0, 0, 0, 0, 0, 0, 0, 0, 0, 0, 0, 0, 0, 0, 0, 0, 0, 0
0, 0, 76, 1, 3, 9, 11, 25, 39, 45, 112, 93, 116, 148, 180, 188, 209, 233, 224, 249, 231, 259, 256, 268, 269, 261, 226, 228, 228, 220, 227, 161, 153, 178, 173, 163, 146, 138, 125, 101, 84, 70, 69, 49, 47, 16, 1, 0, 0, 0, 0, 0, 0, 0, 0, 0, 0, 0, 0, 0, 0, 0, 0, 0, 0, 0, 0, 0, 0, 0, 0, 0, 0, 0, 0, 0, 0, 0, 0, 0, 0, 0, 0, 0, 0, 0, 0, 0, 0, 0, 0, 0, 0, 0, 0, 0, 0, 0, 0, 0, 0, 0, 0, 0, 0, 0
0, 0, 77, 0, 4, 9, 14, 27, 40, 56, 121, 98, 107, 125, 171, 190, 173, 208, 218, 232, 258, 264, 254, 261, 229, 245, 233, 251, 195, 200, 190, 189, 191, 160, 161, 144, 136, 112, 135, 95, 101, 66, 60, 53, 42, 14, 0, 0, 0, 0, 0, 0, 0, 0, 0, 0, 0, 0, 0, 0, 0, 0, 0, 0, 0, 0, 0, 0, 0, 0, 0, 0, 0, 0, 0, 0, 0, 0, 0, 0, 0, 0, 0, 0, 0, 0, 0, 0, 0, 0, 0, 0, 0, 0, 0, 0, 0, 0, 0, 0, 0, 0, 0, 0, 0, 0
