# TOPAS Version: 3.1.p3
# Parameter File: REDLEN_small_phantom_mc_basic_3cm.txt
# Results for scorer PhantomDose
# Scored on surface: CdTeCrystal1/YPlusSurface
# X in 100 bins of 0.03332 cm
# Y in 1 bin  of 0.4 cm
# Z in 100 bins of 0.0375 cm
# SurfaceTrackCount : Sum   
# Binned by incident track energy in 100 bins of 0.00104 MeV from 0.016 MeV to 0.12 MeV
# First bin is underflow, next to last bin is overflow, last bin is for case of no incident track.
0, 0, 0, 0, 0, 0, 0, 0, 0, 1, 0, 1, 1, 2, 2, 0, 0, 1, 2, 2, 3, 4, 2, 3, 4, 1, 5, 2, 2, 1, 1, 1, 0, 3, 2, 1, 2, 2, 3, 1, 0, 0, 1, 0, 0, 0, 0, 0, 0, 0, 0, 0, 0, 0, 0, 0, 0, 0, 0, 0, 0, 0, 0, 0, 0, 0, 0, 0, 0, 0, 0, 0, 0, 0, 0, 0, 0, 0, 0, 0, 0, 0, 0, 0, 0, 0, 0, 0, 0, 0, 0, 0, 0, 0, 0, 0, 0, 0, 0, 0, 0, 0, 0, 0, 0, 0
0, 0, 1, 0, 0, 0, 0, 0, 0, 1, 0, 0, 1, 0, 2, 2, 0, 0, 0, 2, 0, 5, 1, 5, 2, 1, 4, 3, 3, 3, 0, 4, 1, 2, 1, 2, 1, 4, 0, 0, 1, 3, 0, 0, 0, 0, 0, 0, 0, 0, 0, 0, 0, 0, 0, 0, 0, 0, 0, 0, 0, 0, 0, 0, 0, 0, 0, 0, 0, 0, 0, 0, 0, 0, 0, 0, 0, 0, 0, 0, 0, 0, 0, 0, 0, 0, 0, 0, 0, 0, 0, 0, 0, 0, 0, 0, 0, 0, 0, 0, 0, 0, 0, 0, 0, 0
0, 0, 2, 0, 0, 0, 0, 0, 0, 0, 1, 0, 1, 0, 0, 2, 2, 1, 3, 3, 3, 3, 3, 2, 0, 1, 3, 3, 0, 0, 0, 0, 0, 1, 2, 1, 1, 2, 0, 0, 0, 1, 1, 1, 0, 0, 0, 0, 0, 0, 0, 0, 0, 0, 0, 0, 0, 0, 0, 0, 0, 0, 0, 0, 0, 0, 0, 0, 0, 0, 0, 0, 0, 0, 0, 0, 0, 0, 0, 0, 0, 0, 0, 0, 0, 0, 0, 0, 0, 0, 0, 0, 0, 0, 0, 0, 0, 0, 0, 0, 0, 0, 0, 0, 0, 0
0, 0, 3, 0, 0, 0, 0, 0, 0, 0, 0, 0, 0, 0, 0, 3, 1, 3, 4, 0, 1, 2, 3, 4, 2, 5, 7, 0, 1, 2, 3, 3, 2, 0, 0, 1, 2, 0, 0, 3, 1, 1, 0, 0, 0, 0, 0, 0, 0, 0, 0, 0, 0, 0, 0, 0, 0, 0, 0, 0, 0, 0, 0, 0, 0, 0, 0, 0, 0, 0, 0, 0, 0, 0, 0, 0, 0, 0, 0, 0, 0, 0, 0, 0, 0, 0, 0, 0, 0, 0, 0, 0, 0, 0, 0, 0, 0, 0, 0, 0, 0, 0, 0, 0, 0, 0
0, 0, 4, 0, 0, 0, 0, 0, 0, 0, 2, 0, 0, 0, 1, 2, 3, 0, 2, 3, 2, 2, 2, 2, 4, 2, 5, 3, 1, 1, 0, 4, 1, 3, 0, 1, 1, 3, 0, 0, 2, 0, 1, 1, 0, 0, 0, 0, 0, 0, 0, 0, 0, 0, 0, 0, 0, 0, 0, 0, 0, 0, 0, 0, 0, 0, 0, 0, 0, 0, 0, 0, 0, 0, 0, 0, 0, 0, 0, 0, 0, 0, 0, 0, 0, 0, 0, 0, 0, 0, 0, 0, 0, 0, 0, 0, 0, 0, 0, 0, 0, 0, 0, 0, 0, 0
0, 0, 5, 3, 0, 2, 4, 12, 19, 30, 45, 31, 51, 64, 98, 93, 95, 90, 98, 118, 112, 90, 109, 99, 114, 117, 101, 105, 109, 94, 77, 55, 84, 74, 53, 57, 68, 46, 43, 43, 36, 32, 28, 22, 18, 12, 0, 0, 0, 0, 0, 0, 0, 0, 0, 0, 0, 0, 0, 0, 0, 0, 0, 0, 0, 0, 0, 0, 0, 0, 0, 0, 0, 0, 0, 0, 0, 0, 0, 0, 0, 0, 0, 0, 0, 0, 0, 0, 0, 0, 0, 0, 0, 0, 0, 0, 0, 0, 0, 0, 0, 0, 0, 0, 0, 0
0, 0, 6, 5, 2, 9, 16, 20, 33, 48, 122, 98, 118, 151, 158, 192, 229, 228, 211, 254, 218, 270, 224, 227, 279, 216, 217, 206, 203, 174, 197, 204, 175, 170, 163, 167, 125, 128, 107, 102, 90, 78, 66, 67, 40, 15, 2, 0, 0, 0, 0, 0, 0, 0, 0, 0, 0, 0, 0, 0, 0, 0, 0, 0, 0, 0, 0, 0, 0, 0, 0, 0, 0, 0, 0, 0, 0, 0, 0, 0, 0, 0, 0, 0, 0, 0, 0, 0, 0, 0, 0, 0, 0, 0, 0, 0, 0, 0, 0, 0, 0, 0, 0, 0, 0, 0
0, 0, 7, 10, 1, 12, 20, 26, 31, 37, 118, 86, 107, 145, 185, 204, 160, 223, 230, 249, 223, 260, 243, 247, 233, 252, 233, 246, 200, 210, 203, 209, 169, 176, 172, 149, 145, 109, 99, 102, 80, 81, 81, 57, 46, 26, 3, 0, 0, 0, 0, 0, 0, 0, 0, 0, 0, 0, 0, 0, 0, 0, 0, 0, 0, 0, 0, 0, 0, 0, 0, 0, 0, 0, 0, 0, 0, 0, 0, 0, 0, 0, 0, 0, 0, 0, 0, 0, 0, 0, 0, 0, 0, 0, 0, 0, 0, 0, 0, 0, 0, 0, 0, 0, 0, 0
0, 0, 8, 3, 6, 10, 11, 27, 44, 48, 106, 87, 125, 120, 175, 174, 186, 235, 234, 228, 248, 221, 261, 264, 234, 247, 230, 245, 186, 175, 202, 206, 168, 176, 183, 151, 131, 134, 104, 89, 86, 71, 85, 59, 27, 24, 3, 0, 0, 0, 0, 0, 0, 0, 0, 0, 0, 0, 0, 0, 0, 0, 0, 0, 0, 0, 0, 0, 0, 0, 0, 0, 0, 0, 0, 0, 0, 0, 0, 0, 0, 0, 0, 0, 0, 0, 0, 0, 0, 0, 0, 0, 0, 0, 0, 0, 0, 0, 0, 0, 0, 0, 0, 0, 0, 0
0, 0, 9, 4, 5, 9, 17, 35, 49, 46, 108, 100, 124, 141, 186, 193, 225, 215, 249, 230, 237, 273, 238, 228, 212, 251, 240, 218, 204, 198, 207, 195, 195, 182, 167, 150, 137, 118, 101, 117, 81, 73, 83, 56, 39, 20, 2, 0, 0, 0, 0, 0, 0, 0, 0, 0, 0, 0, 0, 0, 0, 0, 0, 0, 0, 0, 0, 0, 0, 0, 0, 0, 0, 0, 0, 0, 0, 0, 0, 0, 0, 0, 0, 0, 0, 0, 0, 0, 0, 0, 0, 0, 0, 0, 0, 0, 0, 0, 0, 0, 0, 0, 0, 0, 0, 0
0, 0, 10, 4, 3, 5, 10, 30, 34, 48, 96, 92, 90, 145, 172, 213, 190, 219, 189, 259, 244, 288, 257, 266, 247, 235, 230, 220, 239, 204, 193, 199, 186, 202, 145, 163, 120, 130, 112, 116, 92, 79, 71, 49, 48, 17, 5, 0, 0, 0, 0, 0, 0, 0, 0, 0, 0, 0, 0, 0, 0, 0, 0, 0, 0, 0, 0, 0, 0, 0, 0, 0, 0, 0, 0, 0, 0, 0, 0, 0, 0, 0, 0, 0, 0, 0, 0, 0, 0, 0, 0, 0, 0, 0, 0, 0, 0, 0, 0, 0, 0, 0, 0, 0, 0, 0
0, 0, 11, 2, 3, 12, 16, 28, 39, 51, 118, 92, 112, 164, 161, 188, 188, 221, 252, 244, 257, 231, 281, 227, 222, 244, 225, 225, 203, 208, 188, 173, 166, 166, 176, 141, 133, 132, 94, 103, 97, 85, 64, 65, 41, 27, 1, 0, 0, 0, 0, 0, 0, 0, 0, 0, 0, 0, 0, 0, 0, 0, 0, 0, 0, 0, 0, 0, 0, 0, 0, 0, 0, 0, 0, 0, 0, 0, 0, 0, 0, 0, 0, 0, 0, 0, 0, 0, 0, 0, 0, 0, 0, 0, 0, 0, 0, 0, 0, 0, 0, 0, 0, 0, 0, 0
0, 0, 12, 0, 1, 7, 18, 24, 40, 60, 96, 85, 111, 163, 174, 202, 212, 201, 227, 258, 282, 257, 260, 299, 266, 256, 220, 229, 204, 229, 212, 183, 198, 151, 165, 138, 160, 137, 111, 106, 84, 67, 79, 49, 48, 23, 3, 0, 0, 0, 0, 0, 0, 0, 0, 0, 0, 0, 0, 0, 0, 0, 0, 0, 0, 0, 0, 0, 0, 0, 0, 0, 0, 0, 0, 0, 0, 0, 0, 0, 0, 0, 0, 0, 0, 0, 0, 0, 0, 0, 0, 0, 0, 0, 0, 0, 0, 0, 0, 0, 0, 0, 0, 0, 0, 0
0, 0, 13, 2, 5, 11, 21, 27, 49, 56, 108, 97, 113, 137, 158, 194, 179, 205, 230, 256, 259, 243, 245, 239, 230, 248, 258, 237, 198, 211, 191, 199, 171, 162, 153, 137, 147, 125, 115, 104, 83, 71, 73, 63, 53, 25, 2, 0, 0, 0, 0, 0, 0, 0, 0, 0, 0, 0, 0, 0, 0, 0, 0, 0, 0, 0, 0, 0, 0, 0, 0, 0, 0, 0, 0, 0, 0, 0, 0, 0, 0, 0, 0, 0, 0, 0, 0, 0, 0, 0, 0, 0, 0, 0, 0, 0, 0, 0, 0, 0, 0, 0, 0, 0, 0, 0
0, 0, 14, 6, 1, 7, 12, 34, 47, 56, 100, 93, 108, 142, 181, 214, 186, 218, 247, 255, 246, 274, 256, 233, 235, 241, 226, 239, 228, 227, 194, 205, 206, 148, 171, 148, 148, 115, 110, 100, 103, 73, 79, 38, 51, 27, 1, 0, 0, 0, 0, 0, 0, 0, 0, 0, 0, 0, 0, 0, 0, 0, 0, 0, 0, 0, 0, 0, 0, 0, 0, 0, 0, 0, 0, 0, 0, 0, 0, 0, 0, 0, 0, 0, 0, 0, 0, 0, 0, 0, 0, 0, 0, 0, 0, 0, 0, 0, 0, 0, 0, 0, 0, 0, 0, 0
0, 0, 15, 4, 4, 14, 14, 25, 41, 53, 126, 89, 119, 139, 139, 189, 218, 182, 247, 243, 245, 259, 229, 240, 239, 253, 234, 204, 236, 228, 218, 209, 159, 155, 183, 127, 135, 130, 134, 105, 101, 80, 52, 49, 43, 25, 0, 0, 0, 0, 0, 0, 0, 0, 0, 0, 0, 0, 0, 0, 0, 0, 0, 0, 0, 0, 0, 0, 0, 0, 0, 0, 0, 0, 0, 0, 0, 0, 0, 0, 0, 0, 0, 0, 0, 0, 0, 0, 0, 0, 0, 0, 0, 0, 0, 0, 0, 0, 0, 0, 0, 0, 0, 0, 0, 0
0, 0, 16, 4, 0, 8, 15, 31, 32, 65, 134, 69, 99, 136, 174, 223, 199, 187, 210, 203, 274, 247, 242, 225, 242, 229, 248, 210, 197, 216, 207, 209, 188, 171, 161, 141, 114, 126, 100, 98, 83, 67, 61, 57, 38, 20, 1, 0, 0, 0, 0, 0, 0, 0, 0, 0, 0, 0, 0, 0, 0, 0, 0, 0, 0, 0, 0, 0, 0, 0, 0, 0, 0, 0, 0, 0, 0, 0, 0, 0, 0, 0, 0, 0, 0, 0, 0, 0, 0, 0, 0, 0, 0, 0, 0, 0, 0, 0, 0, 0, 0, 0, 0, 0, 0, 0
0, 0, 17, 2, 6, 7, 15, 30, 34, 35, 111, 117, 104, 143, 184, 207, 162, 229, 214, 238, 236, 249, 239, 268, 231, 259, 216, 238, 224, 222, 202, 208, 191, 183, 176, 129, 118, 144, 85, 105, 79, 91, 80, 57, 45, 24, 1, 0, 0, 0, 0, 0, 0, 0, 0, 0, 0, 0, 0, 0, 0, 0, 0, 0, 0, 0, 0, 0, 0, 0, 0, 0, 0, 0, 0, 0, 0, 0, 0, 0, 0, 0, 0, 0, 0, 0, 0, 0, 0, 0, 0, 0, 0, 0, 0, 0, 0, 0, 0, 0, 0, 0, 0, 0, 0, 0
0, 0, 18, 6, 2, 8, 16, 14, 41, 58, 120, 101, 97, 149, 140, 179, 203, 221, 247, 249, 222, 254, 231, 232, 228, 258, 236, 244, 227, 209, 212, 184, 174, 190, 154, 135, 128, 119, 101, 100, 83, 74, 75, 54, 49, 26, 3, 0, 0, 0, 0, 0, 0, 0, 0, 0, 0, 0, 0, 0, 0, 0, 0, 0, 0, 0, 0, 0, 0, 0, 0, 0, 0, 0, 0, 0, 0, 0, 0, 0, 0, 0, 0, 0, 0, 0, 0, 0, 0, 0, 0, 0, 0, 0, 0, 0, 0, 0, 0, 0, 0, 0, 0, 0, 0, 0
0, 0, 19, 0, 3, 3, 11, 29, 40, 49, 133, 110, 117, 131, 169, 207, 217, 250, 223, 221, 265, 266, 265, 261, 250, 242, 190, 232, 233, 192, 200, 154, 156, 161, 175, 158, 142, 118, 114, 98, 85, 68, 64, 53, 36, 19, 3, 0, 0, 0, 0, 0, 0, 0, 0, 0, 0, 0, 0, 0, 0, 0, 0, 0, 0, 0, 0, 0, 0, 0, 0, 0, 0, 0, 0, 0, 0, 0, 0, 0, 0, 0, 0, 0, 0, 0, 0, 0, 0, 0, 0, 0, 0, 0, 0, 0, 0, 0, 0, 0, 0, 0, 0, 0, 0, 0
0, 0, 20, 5, 3, 7, 14, 27, 38, 68, 128, 75, 127, 128, 153, 191, 198, 221, 264, 249, 244, 247, 266, 243, 212, 252, 214, 219, 213, 213, 198, 179, 169, 178, 174, 161, 121, 102, 107, 112, 87, 96, 79, 75, 30, 31, 1, 0, 0, 0, 0, 0, 0, 0, 0, 0, 0, 0, 0, 0, 0, 0, 0, 0, 0, 0, 0, 0, 0, 0, 0, 0, 0, 0, 0, 0, 0, 0, 0, 0, 0, 0, 0, 0, 0, 0, 0, 0, 0, 0, 0, 0, 0, 0, 0, 0, 0, 0, 0, 0, 0, 0, 0, 0, 0, 0
0, 0, 21, 9, 4, 6, 15, 30, 46, 60, 140, 109, 118, 153, 174, 199, 219, 228, 247, 247, 271, 257, 252, 241, 256, 224, 245, 220, 232, 199, 218, 181, 167, 164, 165, 151, 112, 134, 112, 125, 89, 83, 69, 57, 39, 24, 0, 0, 0, 0, 0, 0, 0, 0, 0, 0, 0, 0, 0, 0, 0, 0, 0, 0, 0, 0, 0, 0, 0, 0, 0, 0, 0, 0, 0, 0, 0, 0, 0, 0, 0, 0, 0, 0, 0, 0, 0, 0, 0, 0, 0, 0, 0, 0, 0, 0, 0, 0, 0, 0, 0, 0, 0, 0, 0, 0
0, 0, 22, 0, 1, 12, 19, 23, 36, 42, 120, 102, 121, 142, 167, 195, 199, 217, 203, 241, 228, 261, 255, 264, 250, 242, 214, 230, 193, 210, 180, 181, 159, 172, 140, 140, 117, 117, 111, 82, 105, 86, 76, 45, 49, 16, 3, 0, 0, 0, 0, 0, 0, 0, 0, 0, 0, 0, 0, 0, 0, 0, 0, 0, 0, 0, 0, 0, 0, 0, 0, 0, 0, 0, 0, 0, 0, 0, 0, 0, 0, 0, 0, 0, 0, 0, 0, 0, 0, 0, 0, 0, 0, 0, 0, 0, 0, 0, 0, 0, 0, 0, 0, 0, 0, 0
0, 0, 23, 6, 1, 5, 19, 30, 49, 59, 113, 108, 90, 131, 158, 206, 236, 209, 236, 253, 230, 228, 242, 226, 211, 220, 225, 248, 230, 196, 180, 227, 191, 166, 169, 170, 131, 131, 103, 98, 95, 75, 55, 64, 43, 17, 0, 0, 0, 0, 0, 0, 0, 0, 0, 0, 0, 0, 0, 0, 0, 0, 0, 0, 0, 0, 0, 0, 0, 0, 0, 0, 0, 0, 0, 0, 0, 0, 0, 0, 0, 0, 0, 0, 0, 0, 0, 0, 0, 0, 0, 0, 0, 0, 0, 0, 0, 0, 0, 0, 0, 0, 0, 0, 0, 0
0, 0, 24, 6, 4, 14, 12, 25, 33, 45, 121, 102, 119, 143, 162, 222, 172, 221, 231, 246, 238, 225, 253, 246, 221, 196, 199, 221, 210, 199, 185, 189, 152, 160, 181, 132, 129, 101, 131, 106, 91, 75, 59, 59, 42, 25, 2, 0, 0, 0, 0, 0, 0, 0, 0, 0, 0, 0, 0, 0, 0, 0, 0, 0, 0, 0, 0, 0, 0, 0, 0, 0, 0, 0, 0, 0, 0, 0, 0, 0, 0, 0, 0, 0, 0, 0, 0, 0, 0, 0, 0, 0, 0, 0, 0, 0, 0, 0, 0, 0, 0, 0, 0, 0, 0, 0
0, 0, 25, 0, 4, 8, 17, 29, 42, 48, 134, 117, 116, 143, 177, 224, 202, 232, 221, 219, 281, 257, 270, 239, 249, 225, 251, 191, 216, 224, 190, 196, 192, 161, 152, 133, 128, 126, 121, 110, 96, 77, 76, 57, 39, 16, 0, 0, 0, 0, 0, 0, 0, 0, 0, 0, 0, 0, 0, 0, 0, 0, 0, 0, 0, 0, 0, 0, 0, 0, 0, 0, 0, 0, 0, 0, 0, 0, 0, 0, 0, 0, 0, 0, 0, 0, 0, 0, 0, 0, 0, 0, 0, 0, 0, 0, 0, 0, 0, 0, 0, 0, 0, 0, 0, 0
0, 0, 26, 1, 1, 3, 14, 29, 38, 62, 130, 119, 98, 129, 171, 202, 231, 183, 234, 223, 259, 216, 256, 277, 256, 234, 237, 240, 208, 206, 193, 203, 171, 155, 153, 173, 95, 121, 110, 101, 82, 80, 72, 54, 32, 14, 4, 0, 0, 0, 0, 0, 0, 0, 0, 0, 0, 0, 0, 0, 0, 0, 0, 0, 0, 0, 0, 0, 0, 0, 0, 0, 0, 0, 0, 0, 0, 0, 0, 0, 0, 0, 0, 0, 0, 0, 0, 0, 0, 0, 0, 0, 0, 0, 0, 0, 0, 0, 0, 0, 0, 0, 0, 0, 0, 0
0, 0, 27, 0, 4, 13, 13, 31, 48, 77, 100, 76, 114, 139, 183, 168, 228, 214, 218, 241, 244, 271, 273, 248, 249, 235, 236, 233, 223, 189, 212, 176, 167, 185, 167, 175, 123, 120, 115, 104, 91, 83, 81, 53, 41, 23, 2, 0, 0, 0, 0, 0, 0, 0, 0, 0, 0, 0, 0, 0, 0, 0, 0, 0, 0, 0, 0, 0, 0, 0, 0, 0, 0, 0, 0, 0, 0, 0, 0, 0, 0, 0, 0, 0, 0, 0, 0, 0, 0, 0, 0, 0, 0, 0, 0, 0, 0, 0, 0, 0, 0, 0, 0, 0, 0, 0
0, 0, 28, 0, 5, 7, 20, 25, 41, 45, 131, 84, 122, 125, 165, 184, 177, 196, 252, 241, 246, 261, 232, 227, 250, 211, 242, 230, 216, 235, 195, 192, 168, 157, 147, 156, 134, 136, 132, 100, 81, 89, 64, 48, 42, 22, 1, 0, 0, 0, 0, 0, 0, 0, 0, 0, 0, 0, 0, 0, 0, 0, 0, 0, 0, 0, 0, 0, 0, 0, 0, 0, 0, 0, 0, 0, 0, 0, 0, 0, 0, 0, 0, 0, 0, 0, 0, 0, 0, 0, 0, 0, 0, 0, 0, 0, 0, 0, 0, 0, 0, 0, 0, 0, 0, 0
0, 0, 29, 1, 4, 9, 17, 33, 36, 53, 113, 104, 129, 122, 146, 183, 190, 212, 204, 245, 240, 276, 202, 257, 258, 238, 238, 206, 224, 199, 219, 195, 168, 175, 157, 186, 145, 118, 107, 87, 85, 96, 59, 48, 39, 24, 1, 0, 0, 0, 0, 0, 0, 0, 0, 0, 0, 0, 0, 0, 0, 0, 0, 0, 0, 0, 0, 0, 0, 0, 0, 0, 0, 0, 0, 0, 0, 0, 0, 0, 0, 0, 0, 0, 0, 0, 0, 0, 0, 0, 0, 0, 0, 0, 0, 0, 0, 0, 0, 0, 0, 0, 0, 0, 0, 0
0, 0, 30, 3, 2, 9, 16, 26, 34, 59, 109, 97, 120, 134, 198, 183, 196, 198, 217, 237, 248, 219, 249, 273, 256, 240, 239, 237, 209, 220, 186, 186, 187, 152, 154, 141, 136, 130, 108, 112, 103, 93, 68, 57, 45, 21, 0, 0, 0, 0, 0, 0, 0, 0, 0, 0, 0, 0, 0, 0, 0, 0, 0, 0, 0, 0, 0, 0, 0, 0, 0, 0, 0, 0, 0, 0, 0, 0, 0, 0, 0, 0, 0, 0, 0, 0, 0, 0, 0, 0, 0, 0, 0, 0, 0, 0, 0, 0, 0, 0, 0, 0, 0, 0, 0, 0
0, 0, 31, 1, 3, 8, 19, 26, 40, 45, 121, 105, 99, 159, 162, 210, 222, 224, 207, 241, 244, 224, 221, 210, 218, 242, 240, 198, 229, 220, 193, 189, 174, 186, 160, 125, 134, 110, 120, 97, 91, 76, 62, 50, 48, 23, 1, 0, 0, 0, 0, 0, 0, 0, 0, 0, 0, 0, 0, 0, 0, 0, 0, 0, 0, 0, 0, 0, 0, 0, 0, 0, 0, 0, 0, 0, 0, 0, 0, 0, 0, 0, 0, 0, 0, 0, 0, 0, 0, 0, 0, 0, 0, 0, 0, 0, 0, 0, 0, 0, 0, 0, 0, 0, 0, 0
0, 0, 32, 2, 3, 13, 15, 25, 38, 43, 130, 86, 114, 152, 169, 189, 195, 200, 211, 252, 235, 231, 241, 235, 216, 248, 243, 253, 244, 208, 180, 200, 153, 145, 157, 159, 137, 115, 105, 107, 106, 79, 68, 45, 43, 13, 1, 0, 0, 0, 0, 0, 0, 0, 0, 0, 0, 0, 0, 0, 0, 0, 0, 0, 0, 0, 0, 0, 0, 0, 0, 0, 0, 0, 0, 0, 0, 0, 0, 0, 0, 0, 0, 0, 0, 0, 0, 0, 0, 0, 0, 0, 0, 0, 0, 0, 0, 0, 0, 0, 0, 0, 0, 0, 0, 0
0, 0, 33, 3, 6, 9, 10, 35, 31, 51, 116, 108, 110, 131, 169, 195, 229, 205, 229, 225, 223, 242, 251, 242, 238, 244, 216, 220, 212, 210, 203, 207, 147, 161, 154, 139, 130, 110, 110, 115, 101, 69, 78, 57, 42, 14, 1, 0, 0, 0, 0, 0, 0, 0, 0, 0, 0, 0, 0, 0, 0, 0, 0, 0, 0, 0, 0, 0, 0, 0, 0, 0, 0, 0, 0, 0, 0, 0, 0, 0, 0, 0, 0, 0, 0, 0, 0, 0, 0, 0, 0, 0, 0, 0, 0, 0, 0, 0, 0, 0, 0, 0, 0, 0, 0, 0
0, 0, 34, 1, 2, 5, 15, 27, 38, 46, 105, 100, 111, 126, 179, 195, 175, 226, 237, 216, 224, 230, 233, 288, 250, 239, 204, 191, 218, 177, 185, 194, 194, 144, 179, 164, 145, 130, 108, 106, 91, 89, 49, 53, 30, 20, 0, 0, 0, 0, 0, 0, 0, 0, 0, 0, 0, 0, 0, 0, 0, 0, 0, 0, 0, 0, 0, 0, 0, 0, 0, 0, 0, 0, 0, 0, 0, 0, 0, 0, 0, 0, 0, 0, 0, 0, 0, 0, 0, 0, 0, 0, 0, 0, 0, 0, 0, 0, 0, 0, 0, 0, 0, 0, 0, 0
0, 0, 35, 2, 2, 5, 10, 33, 29, 58, 108, 98, 126, 159, 172, 188, 214, 200, 206, 245, 232, 236, 250, 244, 256, 240, 253, 212, 227, 215, 240, 168, 172, 145, 148, 181, 128, 114, 89, 105, 79, 88, 57, 54, 49, 25, 2, 0, 0, 0, 0, 0, 0, 0, 0, 0, 0, 0, 0, 0, 0, 0, 0, 0, 0, 0, 0, 0, 0, 0, 0, 0, 0, 0, 0, 0, 0, 0, 0, 0, 0, 0, 0, 0, 0, 0, 0, 0, 0, 0, 0, 0, 0, 0, 0, 0, 0, 0, 0, 0, 0, 0, 0, 0, 0, 0
0, 0, 36, 5, 4, 10, 19, 18, 42, 50, 119, 114, 121, 160, 168, 178, 208, 208, 205, 236, 255, 277, 250, 208, 227, 236, 243, 218, 209, 191, 200, 172, 157, 160, 148, 160, 139, 141, 120, 108, 113, 69, 69, 48, 40, 22, 2, 0, 0, 0, 0, 0, 0, 0, 0, 0, 0, 0, 0, 0, 0, 0, 0, 0, 0, 0, 0, 0, 0, 0, 0, 0, 0, 0, 0, 0, 0, 0, 0, 0, 0, 0, 0, 0, 0, 0, 0, 0, 0, 0, 0, 0, 0, 0, 0, 0, 0, 0, 0, 0, 0, 0, 0, 0, 0, 0
0, 0, 37, 4, 5, 8, 15, 19, 32, 61, 112, 86, 126, 147, 140, 189, 206, 222, 224, 239, 233, 282, 269, 227, 242, 277, 221, 241, 197, 185, 179, 191, 200, 168, 128, 161, 142, 131, 123, 106, 82, 73, 64, 63, 47, 16, 1, 0, 0, 0, 0, 0, 0, 0, 0, 0, 0, 0, 0, 0, 0, 0, 0, 0, 0, 0, 0, 0, 0, 0, 0, 0, 0, 0, 0, 0, 0, 0, 0, 0, 0, 0, 0, 0, 0, 0, 0, 0, 0, 0, 0, 0, 0, 0, 0, 0, 0, 0, 0, 0, 0, 0, 0, 0, 0, 0
0, 0, 38, 4, 5, 7, 12, 23, 31, 54, 119, 106, 124, 152, 174, 179, 219, 187, 258, 259, 247, 247, 220, 243, 236, 231, 229, 209, 213, 216, 212, 195, 198, 141, 162, 134, 141, 137, 137, 99, 89, 70, 48, 50, 43, 22, 2, 0, 0, 0, 0, 0, 0, 0, 0, 0, 0, 0, 0, 0, 0, 0, 0, 0, 0, 0, 0, 0, 0, 0, 0, 0, 0, 0, 0, 0, 0, 0, 0, 0, 0, 0, 0, 0, 0, 0, 0, 0, 0, 0, 0, 0, 0, 0, 0, 0, 0, 0, 0, 0, 0, 0, 0, 0, 0, 0
0, 0, 39, 3, 5, 4, 22, 26, 42, 47, 119, 99, 110, 165, 197, 175, 220, 206, 220, 285, 210, 269, 255, 265, 265, 216, 225, 229, 217, 195, 186, 188, 203, 169, 163, 142, 128, 111, 108, 86, 80, 91, 81, 59, 46, 18, 4, 0, 0, 0, 0, 0, 0, 0, 0, 0, 0, 0, 0, 0, 0, 0, 0, 0, 0, 0, 0, 0, 0, 0, 0, 0, 0, 0, 0, 0, 0, 0, 0, 0, 0, 0, 0, 0, 0, 0, 0, 0, 0, 0, 0, 0, 0, 0, 0, 0, 0, 0, 0, 0, 0, 0, 0, 0, 0, 0
0, 0, 40, 2, 3, 13, 20, 23, 47, 65, 105, 92, 106, 139, 182, 190, 199, 193, 220, 244, 253, 233, 266, 257, 220, 267, 226, 241, 228, 213, 192, 175, 192, 162, 175, 167, 136, 132, 139, 105, 93, 86, 82, 59, 41, 17, 1, 0, 0, 0, 0, 0, 0, 0, 0, 0, 0, 0, 0, 0, 0, 0, 0, 0, 0, 0, 0, 0, 0, 0, 0, 0, 0, 0, 0, 0, 0, 0, 0, 0, 0, 0, 0, 0, 0, 0, 0, 0, 0, 0, 0, 0, 0, 0, 0, 0, 0, 0, 0, 0, 0, 0, 0, 0, 0, 0
0, 0, 41, 0, 5, 10, 9, 17, 41, 55, 105, 79, 113, 144, 135, 190, 191, 181, 192, 244, 235, 201, 241, 228, 247, 214, 249, 212, 193, 202, 187, 188, 154, 160, 150, 143, 156, 132, 101, 100, 93, 71, 68, 65, 41, 22, 1, 0, 0, 0, 0, 0, 0, 0, 0, 0, 0, 0, 0, 0, 0, 0, 0, 0, 0, 0, 0, 0, 0, 0, 0, 0, 0, 0, 0, 0, 0, 0, 0, 0, 0, 0, 0, 0, 0, 0, 0, 0, 0, 0, 0, 0, 0, 0, 0, 0, 0, 0, 0, 0, 0, 0, 0, 0, 0, 0
0, 0, 42, 4, 3, 2, 7, 16, 37, 39, 71, 55, 73, 116, 135, 153, 163, 167, 189, 155, 166, 212, 190, 201, 187, 204, 205, 201, 171, 156, 163, 166, 161, 119, 119, 122, 108, 95, 90, 81, 69, 66, 49, 47, 34, 19, 2, 0, 0, 0, 0, 0, 0, 0, 0, 0, 0, 0, 0, 0, 0, 0, 0, 0, 0, 0, 0, 0, 0, 0, 0, 0, 0, 0, 0, 0, 0, 0, 0, 0, 0, 0, 0, 0, 0, 0, 0, 0, 0, 0, 0, 0, 0, 0, 0, 0, 0, 0, 0, 0, 0, 0, 0, 0, 0, 0
0, 0, 43, 0, 1, 3, 11, 22, 23, 35, 64, 49, 62, 79, 96, 118, 118, 118, 138, 152, 116, 168, 181, 155, 125, 165, 145, 145, 154, 150, 141, 112, 138, 133, 101, 83, 92, 88, 81, 76, 56, 46, 35, 49, 23, 8, 0, 0, 0, 0, 0, 0, 0, 0, 0, 0, 0, 0, 0, 0, 0, 0, 0, 0, 0, 0, 0, 0, 0, 0, 0, 0, 0, 0, 0, 0, 0, 0, 0, 0, 0, 0, 0, 0, 0, 0, 0, 0, 0, 0, 0, 0, 0, 0, 0, 0, 0, 0, 0, 0, 0, 0, 0, 0, 0, 0
0, 0, 44, 0, 1, 6, 8, 11, 20, 19, 47, 39, 51, 67, 81, 84, 87, 109, 112, 112, 120, 120, 132, 130, 101, 120, 111, 120, 134, 121, 86, 131, 91, 88, 84, 76, 73, 85, 86, 57, 66, 47, 38, 25, 36, 9, 1, 0, 0, 0, 0, 0, 0, 0, 0, 0, 0, 0, 0, 0, 0, 0, 0, 0, 0, 0, 0, 0, 0, 0, 0, 0, 0, 0, 0, 0, 0, 0, 0, 0, 0, 0, 0, 0, 0, 0, 0, 0, 0, 0, 0, 0, 0, 0, 0, 0, 0, 0, 0, 0, 0, 0, 0, 0, 0, 0
0, 0, 45, 1, 2, 1, 2, 6, 7, 13, 41, 22, 35, 39, 66, 65, 71, 67, 84, 85, 95, 82, 110, 123, 74, 92, 87, 107, 89, 103, 88, 89, 90, 70, 82, 71, 67, 48, 77, 59, 35, 31, 38, 24, 18, 18, 2, 0, 0, 0, 0, 0, 0, 0, 0, 0, 0, 0, 0, 0, 0, 0, 0, 0, 0, 0, 0, 0, 0, 0, 0, 0, 0, 0, 0, 0, 0, 0, 0, 0, 0, 0, 0, 0, 0, 0, 0, 0, 0, 0, 0, 0, 0, 0, 0, 0, 0, 0, 0, 0, 0, 0, 0, 0, 0, 0
0, 0, 46, 1, 0, 1, 1, 7, 4, 9, 25, 22, 24, 29, 31, 51, 62, 45, 54, 61, 67, 76, 63, 72, 71, 70, 85, 73, 81, 59, 82, 79, 69, 57, 57, 43, 43, 32, 47, 40, 38, 40, 25, 17, 16, 15, 0, 0, 0, 0, 0, 0, 0, 0, 0, 0, 0, 0, 0, 0, 0, 0, 0, 0, 0, 0, 0, 0, 0, 0, 0, 0, 0, 0, 0, 0, 0, 0, 0, 0, 0, 0, 0, 0, 0, 0, 0, 0, 0, 0, 0, 0, 0, 0, 0, 0, 0, 0, 0, 0, 0, 0, 0, 0, 0, 0
0, 0, 47, 3, 0, 0, 3, 1, 3, 10, 21, 7, 10, 20, 23, 40, 30, 47, 52, 55, 63, 68, 69, 64, 55, 76, 44, 63, 51, 50, 56, 53, 54, 52, 47, 46, 40, 23, 32, 31, 41, 29, 24, 33, 13, 15, 0, 0, 0, 0, 0, 0, 0, 0, 0, 0, 0, 0, 0, 0, 0, 0, 0, 0, 0, 0, 0, 0, 0, 0, 0, 0, 0, 0, 0, 0, 0, 0, 0, 0, 0, 0, 0, 0, 0, 0, 0, 0, 0, 0, 0, 0, 0, 0, 0, 0, 0, 0, 0, 0, 0, 0, 0, 0, 0, 0
0, 0, 48, 2, 1, 1, 0, 0, 2, 6, 16, 8, 12, 22, 13, 21, 26, 36, 27, 40, 57, 36, 38, 59, 47, 57, 68, 55, 53, 67, 50, 61, 38, 53, 45, 35, 39, 43, 36, 32, 26, 18, 17, 21, 16, 6, 0, 0, 0, 0, 0, 0, 0, 0, 0, 0, 0, 0, 0, 0, 0, 0, 0, 0, 0, 0, 0, 0, 0, 0, 0, 0, 0, 0, 0, 0, 0, 0, 0, 0, 0, 0, 0, 0, 0, 0, 0, 0, 0, 0, 0, 0, 0, 0, 0, 0, 0, 0, 0, 0, 0, 0, 0, 0, 0, 0
0, 0, 49, 0, 0, 0, 0, 0, 2, 2, 12, 3, 3, 7, 20, 25, 24, 23, 27, 38, 34, 52, 45, 55, 47, 50, 52, 42, 40, 54, 56, 47, 39, 44, 53, 44, 34, 25, 42, 31, 20, 27, 9, 8, 5, 4, 0, 0, 0, 0, 0, 0, 0, 0, 0, 0, 0, 0, 0, 0, 0, 0, 0, 0, 0, 0, 0, 0, 0, 0, 0, 0, 0, 0, 0, 0, 0, 0, 0, 0, 0, 0, 0, 0, 0, 0, 0, 0, 0, 0, 0, 0, 0, 0, 0, 0, 0, 0, 0, 0, 0, 0, 0, 0, 0, 0
0, 0, 50, 2, 0, 0, 0, 0, 0, 2, 8, 2, 7, 11, 18, 22, 16, 22, 42, 23, 46, 40, 52, 43, 61, 56, 64, 60, 55, 41, 55, 50, 57, 52, 25, 35, 47, 38, 29, 32, 35, 28, 23, 14, 10, 6, 2, 0, 0, 0, 0, 0, 0, 0, 0, 0, 0, 0, 0, 0, 0, 0, 0, 0, 0, 0, 0, 0, 0, 0, 0, 0, 0, 0, 0, 0, 0, 0, 0, 0, 0, 0, 0, 0, 0, 0, 0, 0, 0, 0, 0, 0, 0, 0, 0, 0, 0, 0, 0, 0, 0, 0, 0, 0, 0, 0
0, 0, 51, 0, 0, 0, 0, 0, 0, 1, 13, 6, 12, 10, 22, 21, 23, 31, 38, 42, 48, 49, 49, 45, 59, 44, 54, 45, 73, 51, 54, 58, 60, 39, 47, 41, 41, 42, 29, 25, 28, 26, 22, 9, 10, 3, 0, 0, 0, 0, 0, 0, 0, 0, 0, 0, 0, 0, 0, 0, 0, 0, 0, 0, 0, 0, 0, 0, 0, 0, 0, 0, 0, 0, 0, 0, 0, 0, 0, 0, 0, 0, 0, 0, 0, 0, 0, 0, 0, 0, 0, 0, 0, 0, 0, 0, 0, 0, 0, 0, 0, 0, 0, 0, 0, 0
0, 0, 52, 1, 1, 1, 2, 4, 4, 5, 21, 8, 14, 29, 30, 32, 24, 43, 38, 42, 61, 78, 59, 60, 54, 60, 52, 72, 63, 65, 48, 67, 51, 45, 56, 52, 47, 44, 36, 41, 30, 31, 28, 23, 17, 8, 0, 0, 0, 0, 0, 0, 0, 0, 0, 0, 0, 0, 0, 0, 0, 0, 0, 0, 0, 0, 0, 0, 0, 0, 0, 0, 0, 0, 0, 0, 0, 0, 0, 0, 0, 0, 0, 0, 0, 0, 0, 0, 0, 0, 0, 0, 0, 0, 0, 0, 0, 0, 0, 0, 0, 0, 0, 0, 0, 0
0, 0, 53, 0, 1, 4, 2, 2, 2, 3, 22, 19, 23, 32, 53, 47, 58, 42, 50, 57, 67, 79, 72, 71, 84, 81, 75, 68, 71, 53, 71, 66, 63, 54, 60, 62, 56, 47, 48, 43, 33, 35, 33, 19, 18, 17, 0, 0, 0, 0, 0, 0, 0, 0, 0, 0, 0, 0, 0, 0, 0, 0, 0, 0, 0, 0, 0, 0, 0, 0, 0, 0, 0, 0, 0, 0, 0, 0, 0, 0, 0, 0, 0, 0, 0, 0, 0, 0, 0, 0, 0, 0, 0, 0, 0, 0, 0, 0, 0, 0, 0, 0, 0, 0, 0, 0
0, 0, 54, 2, 1, 5, 5, 8, 11, 16, 30, 25, 28, 49, 34, 66, 76, 53, 94, 73, 91, 115, 87, 99, 87, 101, 101, 80, 90, 106, 59, 67, 80, 80, 69, 74, 65, 80, 53, 48, 42, 33, 31, 30, 22, 5, 0, 0, 0, 0, 0, 0, 0, 0, 0, 0, 0, 0, 0, 0, 0, 0, 0, 0, 0, 0, 0, 0, 0, 0, 0, 0, 0, 0, 0, 0, 0, 0, 0, 0, 0, 0, 0, 0, 0, 0, 0, 0, 0, 0, 0, 0, 0, 0, 0, 0, 0, 0, 0, 0, 0, 0, 0, 0, 0, 0
0, 0, 55, 1, 2, 4, 5, 8, 11, 30, 47, 30, 55, 72, 65, 97, 119, 98, 100, 104, 146, 127, 122, 120, 124, 117, 132, 115, 113, 116, 115, 80, 107, 103, 95, 78, 80, 83, 60, 57, 46, 54, 41, 33, 21, 14, 0, 0, 0, 0, 0, 0, 0, 0, 0, 0, 0, 0, 0, 0, 0, 0, 0, 0, 0, 0, 0, 0, 0, 0, 0, 0, 0, 0, 0, 0, 0, 0, 0, 0, 0, 0, 0, 0, 0, 0, 0, 0, 0, 0, 0, 0, 0, 0, 0, 0, 0, 0, 0, 0, 0, 0, 0, 0, 0, 0
0, 0, 56, 1, 2, 4, 7, 7, 33, 37, 52, 43, 49, 79, 98, 98, 128, 133, 149, 136, 161, 158, 138, 169, 174, 148, 167, 152, 123, 122, 119, 102, 128, 109, 92, 130, 103, 70, 62, 60, 72, 56, 38, 31, 36, 11, 2, 0, 0, 0, 0, 0, 0, 0, 0, 0, 0, 0, 0, 0, 0, 0, 0, 0, 0, 0, 0, 0, 0, 0, 0, 0, 0, 0, 0, 0, 0, 0, 0, 0, 0, 0, 0, 0, 0, 0, 0, 0, 0, 0, 0, 0, 0, 0, 0, 0, 0, 0, 0, 0, 0, 0, 0, 0, 0, 0
0, 0, 57, 3, 2, 9, 11, 18, 30, 41, 80, 69, 83, 116, 127, 139, 126, 145, 155, 182, 196, 156, 204, 173, 205, 181, 196, 193, 164, 172, 162, 130, 132, 135, 112, 103, 112, 99, 73, 92, 74, 66, 66, 48, 30, 19, 1, 0, 0, 0, 0, 0, 0, 0, 0, 0, 0, 0, 0, 0, 0, 0, 0, 0, 0, 0, 0, 0, 0, 0, 0, 0, 0, 0, 0, 0, 0, 0, 0, 0, 0, 0, 0, 0, 0, 0, 0, 0, 0, 0, 0, 0, 0, 0, 0, 0, 0, 0, 0, 0, 0, 0, 0, 0, 0, 0
0, 0, 58, 1, 3, 11, 16, 24, 31, 44, 102, 98, 95, 148, 147, 162, 171, 200, 203, 227, 203, 262, 193, 213, 208, 221, 223, 218, 216, 219, 205, 181, 163, 177, 185, 124, 112, 127, 105, 92, 80, 84, 66, 53, 36, 20, 1, 0, 0, 0, 0, 0, 0, 0, 0, 0, 0, 0, 0, 0, 0, 0, 0, 0, 0, 0, 0, 0, 0, 0, 0, 0, 0, 0, 0, 0, 0, 0, 0, 0, 0, 0, 0, 0, 0, 0, 0, 0, 0, 0, 0, 0, 0, 0, 0, 0, 0, 0, 0, 0, 0, 0, 0, 0, 0, 0
0, 0, 59, 3, 3, 10, 14, 27, 31, 72, 135, 92, 119, 134, 178, 221, 210, 218, 217, 252, 279, 290, 261, 241, 246, 258, 246, 228, 232, 197, 214, 173, 178, 162, 183, 190, 169, 128, 98, 86, 88, 84, 67, 53, 53, 15, 1, 0, 0, 0, 0, 0, 0, 0, 0, 0, 0, 0, 0, 0, 0, 0, 0, 0, 0, 0, 0, 0, 0, 0, 0, 0, 0, 0, 0, 0, 0, 0, 0, 0, 0, 0, 0, 0, 0, 0, 0, 0, 0, 0, 0, 0, 0, 0, 0, 0, 0, 0, 0, 0, 0, 0, 0, 0, 0, 0
0, 0, 60, 0, 2, 13, 12, 23, 42, 67, 96, 97, 119, 149, 165, 192, 206, 192, 240, 253, 258, 221, 217, 280, 259, 242, 236, 219, 202, 214, 186, 196, 171, 190, 154, 141, 134, 113, 127, 76, 89, 86, 62, 47, 38, 21, 4, 0, 0, 0, 0, 0, 0, 0, 0, 0, 0, 0, 0, 0, 0, 0, 0, 0, 0, 0, 0, 0, 0, 0, 0, 0, 0, 0, 0, 0, 0, 0, 0, 0, 0, 0, 0, 0, 0, 0, 0, 0, 0, 0, 0, 0, 0, 0, 0, 0, 0, 0, 0, 0, 0, 0, 0, 0, 0, 0
0, 0, 61, 0, 4, 5, 10, 27, 53, 60, 135, 81, 120, 143, 183, 177, 202, 205, 221, 239, 235, 250, 255, 250, 225, 225, 227, 226, 214, 215, 196, 200, 161, 185, 172, 155, 134, 129, 118, 85, 105, 74, 63, 51, 36, 18, 3, 0, 0, 0, 0, 0, 0, 0, 0, 0, 0, 0, 0, 0, 0, 0, 0, 0, 0, 0, 0, 0, 0, 0, 0, 0, 0, 0, 0, 0, 0, 0, 0, 0, 0, 0, 0, 0, 0, 0, 0, 0, 0, 0, 0, 0, 0, 0, 0, 0, 0, 0, 0, 0, 0, 0, 0, 0, 0, 0
0, 0, 62, 2, 3, 5, 14, 26, 35, 51, 105, 83, 116, 150, 178, 202, 197, 228, 254, 242, 246, 240, 229, 245, 236, 222, 199, 259, 215, 200, 203, 197, 192, 150, 166, 148, 164, 126, 123, 110, 84, 67, 72, 43, 44, 17, 0, 0, 0, 0, 0, 0, 0, 0, 0, 0, 0, 0, 0, 0, 0, 0, 0, 0, 0, 0, 0, 0, 0, 0, 0, 0, 0, 0, 0, 0, 0, 0, 0, 0, 0, 0, 0, 0, 0, 0, 0, 0, 0, 0, 0, 0, 0, 0, 0, 0, 0, 0, 0, 0, 0, 0, 0, 0, 0, 0
0, 0, 63, 5, 5, 14, 13, 22, 43, 59, 113, 88, 118, 150, 181, 174, 223, 235, 221, 279, 251, 240, 250, 228, 235, 255, 210, 211, 235, 233, 172, 199, 157, 180, 165, 145, 135, 147, 119, 99, 102, 79, 74, 40, 34, 30, 1, 0, 0, 0, 0, 0, 0, 0, 0, 0, 0, 0, 0, 0, 0, 0, 0, 0, 0, 0, 0, 0, 0, 0, 0, 0, 0, 0, 0, 0, 0, 0, 0, 0, 0, 0, 0, 0, 0, 0, 0, 0, 0, 0, 0, 0, 0, 0, 0, 0, 0, 0, 0, 0, 0, 0, 0, 0, 0, 0
0, 0, 64, 0, 8, 7, 13, 27, 37, 51, 95, 102, 108, 158, 155, 213, 216, 219, 208, 240, 257, 238, 234, 242, 235, 244, 226, 236, 201, 185, 205, 175, 189, 147, 150, 139, 144, 127, 132, 116, 72, 71, 63, 53, 28, 12, 2, 0, 0, 0, 0, 0, 0, 0, 0, 0, 0, 0, 0, 0, 0, 0, 0, 0, 0, 0, 0, 0, 0, 0, 0, 0, 0, 0, 0, 0, 0, 0, 0, 0, 0, 0, 0, 0, 0, 0, 0, 0, 0, 0, 0, 0, 0, 0, 0, 0, 0, 0, 0, 0, 0, 0, 0, 0, 0, 0
0, 0, 65, 0, 3, 12, 20, 14, 40, 68, 112, 100, 115, 143, 156, 199, 214, 204, 224, 222, 223, 277, 270, 246, 254, 234, 228, 228, 220, 191, 203, 198, 192, 187, 153, 144, 145, 114, 101, 86, 83, 74, 73, 48, 38, 19, 1, 0, 0, 0, 0, 0, 0, 0, 0, 0, 0, 0, 0, 0, 0, 0, 0, 0, 0, 0, 0, 0, 0, 0, 0, 0, 0, 0, 0, 0, 0, 0, 0, 0, 0, 0, 0, 0, 0, 0, 0, 0, 0, 0, 0, 0, 0, 0, 0, 0, 0, 0, 0, 0, 0, 0, 0, 0, 0, 0
0, 0, 66, 2, 4, 8, 10, 24, 49, 41, 116, 98, 117, 144, 159, 213, 212, 207, 217, 246, 251, 232, 261, 262, 241, 227, 265, 263, 231, 250, 198, 202, 171, 179, 144, 147, 153, 108, 120, 102, 80, 74, 50, 62, 46, 31, 3, 0, 0, 0, 0, 0, 0, 0, 0, 0, 0, 0, 0, 0, 0, 0, 0, 0, 0, 0, 0, 0, 0, 0, 0, 0, 0, 0, 0, 0, 0, 0, 0, 0, 0, 0, 0, 0, 0, 0, 0, 0, 0, 0, 0, 0, 0, 0, 0, 0, 0, 0, 0, 0, 0, 0, 0, 0, 0, 0
0, 0, 67, 4, 3, 5, 21, 24, 44, 51, 114, 106, 127, 136, 160, 186, 219, 225, 240, 263, 243, 235, 232, 213, 244, 234, 206, 217, 217, 207, 200, 198, 167, 184, 161, 166, 132, 133, 114, 91, 90, 71, 57, 46, 43, 23, 0, 0, 0, 0, 0, 0, 0, 0, 0, 0, 0, 0, 0, 0, 0, 0, 0, 0, 0, 0, 0, 0, 0, 0, 0, 0, 0, 0, 0, 0, 0, 0, 0, 0, 0, 0, 0, 0, 0, 0, 0, 0, 0, 0, 0, 0, 0, 0, 0, 0, 0, 0, 0, 0, 0, 0, 0, 0, 0, 0
0, 0, 68, 7, 1, 12, 7, 24, 42, 55, 122, 89, 131, 131, 190, 181, 193, 203, 218, 226, 257, 238, 266, 254, 255, 283, 239, 223, 210, 219, 209, 205, 170, 173, 159, 145, 128, 139, 113, 121, 85, 92, 79, 47, 21, 26, 2, 0, 0, 0, 0, 0, 0, 0, 0, 0, 0, 0, 0, 0, 0, 0, 0, 0, 0, 0, 0, 0, 0, 0, 0, 0, 0, 0, 0, 0, 0, 0, 0, 0, 0, 0, 0, 0, 0, 0, 0, 0, 0, 0, 0, 0, 0, 0, 0, 0, 0, 0, 0, 0, 0, 0, 0, 0, 0, 0
0, 0, 69, 6, 1, 6, 10, 31, 33, 62, 117, 94, 111, 148, 192, 211, 194, 190, 232, 233, 219, 215, 246, 240, 241, 220, 212, 244, 198, 204, 219, 194, 190, 146, 156, 135, 149, 146, 130, 108, 75, 74, 83, 56, 33, 14, 4, 0, 0, 0, 0, 0, 0, 0, 0, 0, 0, 0, 0, 0, 0, 0, 0, 0, 0, 0, 0, 0, 0, 0, 0, 0, 0, 0, 0, 0, 0, 0, 0, 0, 0, 0, 0, 0, 0, 0, 0, 0, 0, 0, 0, 0, 0, 0, 0, 0, 0, 0, 0, 0, 0, 0, 0, 0, 0, 0
0, 0, 70, 0, 5, 7, 14, 21, 33, 52, 107, 97, 106, 140, 155, 197, 192, 219, 250, 249, 247, 241, 240, 282, 236, 225, 212, 224, 204, 195, 198, 229, 154, 163, 165, 124, 125, 135, 116, 84, 105, 108, 68, 46, 42, 15, 2, 0, 0, 0, 0, 0, 0, 0, 0, 0, 0, 0, 0, 0, 0, 0, 0, 0, 0, 0, 0, 0, 0, 0, 0, 0, 0, 0, 0, 0, 0, 0, 0, 0, 0, 0, 0, 0, 0, 0, 0, 0, 0, 0, 0, 0, 0, 0, 0, 0, 0, 0, 0, 0, 0, 0, 0, 0, 0, 0
0, 0, 71, 4, 2, 8, 15, 35, 47, 63, 101, 92, 129, 163, 191, 182, 204, 186, 226, 265, 220, 240, 238, 258, 223, 227, 220, 238, 213, 223, 178, 198, 167, 138, 154, 138, 128, 136, 127, 111, 90, 87, 76, 58, 31, 14, 4, 0, 0, 0, 0, 0, 0, 0, 0, 0, 0, 0, 0, 0, 0, 0, 0, 0, 0, 0, 0, 0, 0, 0, 0, 0, 0, 0, 0, 0, 0, 0, 0, 0, 0, 0, 0, 0, 0, 0, 0, 0, 0, 0, 0, 0, 0, 0, 0, 0, 0, 0, 0, 0, 0, 0, 0, 0, 0, 0
0, 0, 72, 4, 4, 8, 20, 27, 37, 66, 101, 109, 129, 159, 171, 185, 181, 214, 216, 273, 223, 273, 257, 241, 257, 255, 227, 212, 206, 183, 210, 181, 187, 179, 178, 159, 163, 133, 127, 88, 88, 78, 51, 61, 35, 24, 0, 0, 0, 0, 0, 0, 0, 0, 0, 0, 0, 0, 0, 0, 0, 0, 0, 0, 0, 0, 0, 0, 0, 0, 0, 0, 0, 0, 0, 0, 0, 0, 0, 0, 0, 0, 0, 0, 0, 0, 0, 0, 0, 0, 0, 0, 0, 0, 0, 0, 0, 0, 0, 0, 0, 0, 0, 0, 0, 0
0, 0, 73, 2, 7, 11, 16, 22, 46, 71, 128, 100, 122, 164, 159, 214, 206, 220, 214, 219, 245, 278, 222, 242, 271, 237, 217, 211, 221, 196, 176, 203, 183, 168, 152, 158, 146, 133, 118, 93, 100, 79, 81, 66, 33, 34, 0, 0, 0, 0, 0, 0, 0, 0, 0, 0, 0, 0, 0, 0, 0, 0, 0, 0, 0, 0, 0, 0, 0, 0, 0, 0, 0, 0, 0, 0, 0, 0, 0, 0, 0, 0, 0, 0, 0, 0, 0, 0, 0, 0, 0, 0, 0, 0, 0, 0, 0, 0, 0, 0, 0, 0, 0, 0, 0, 0
0, 0, 74, 0, 4, 7, 17, 23, 51, 48, 124, 93, 105, 158, 194, 209, 197, 201, 228, 251, 230, 253, 237, 276, 258, 245, 259, 248, 195, 204, 195, 180, 189, 165, 158, 153, 119, 135, 109, 92, 90, 83, 72, 48, 48, 20, 0, 0, 0, 0, 0, 0, 0, 0, 0, 0, 0, 0, 0, 0, 0, 0, 0, 0, 0, 0, 0, 0, 0, 0, 0, 0, 0, 0, 0, 0, 0, 0, 0, 0, 0, 0, 0, 0, 0, 0, 0, 0, 0, 0, 0, 0, 0, 0, 0, 0, 0, 0, 0, 0, 0, 0, 0, 0, 0, 0
0, 0, 75, 2, 5, 9, 17, 25, 44, 75, 116, 95, 122, 149, 185, 177, 205, 202, 216, 247, 259, 211, 227, 256, 267, 209, 249, 194, 213, 226, 202, 189, 213, 172, 174, 154, 138, 116, 103, 103, 98, 86, 81, 48, 45, 28, 1, 0, 0, 0, 0, 0, 0, 0, 0, 0, 0, 0, 0, 0, 0, 0, 0, 0, 0, 0, 0, 0, 0, 0, 0, 0, 0, 0, 0, 0, 0, 0, 0, 0, 0, 0, 0, 0, 0, 0, 0, 0, 0, 0, 0, 0, 0, 0, 0, 0, 0, 0, 0, 0, 0, 0, 0, 0, 0, 0
0, 0, 76, 3, 3, 6, 16, 16, 43, 55, 115, 92, 84, 162, 184, 186, 196, 189, 237, 223, 236, 266, 246, 231, 255, 247, 219, 219, 200, 220, 168, 226, 197, 168, 184, 147, 142, 130, 113, 114, 82, 83, 73, 50, 39, 18, 1, 0, 0, 0, 0, 0, 0, 0, 0, 0, 0, 0, 0, 0, 0, 0, 0, 0, 0, 0, 0, 0, 0, 0, 0, 0, 0, 0, 0, 0, 0, 0, 0, 0, 0, 0, 0, 0, 0, 0, 0, 0, 0, 0, 0, 0, 0, 0, 0, 0, 0, 0, 0, 0, 0, 0, 0, 0, 0, 0
0, 0, 77, 2, 1, 15, 8, 19, 39, 51, 116, 97, 119, 146, 194, 206, 173, 242, 225, 218, 209, 266, 300, 254, 237, 256, 234, 225, 197, 189, 186, 192, 187, 175, 179, 151, 148, 122, 109, 99, 77, 83, 76, 54, 42, 12, 1, 0, 0, 0, 0, 0, 0, 0, 0, 0, 0, 0, 0, 0, 0, 0, 0, 0, 0, 0, 0, 0, 0, 0, 0, 0, 0, 0, 0, 0, 0, 0, 0, 0, 0, 0, 0, 0, 0, 0, 0, 0, 0, 0, 0, 0, 0, 0, 0, 0, 0, 0, 0, 0, 0, 0, 0, 0, 0, 0
