# TOPAS Version: 3.1.p3
# Parameter File: REDLEN_small_phantom_mc_basic_4cm.txt
# Results for scorer PhantomDose
# Scored on surface: CdTeCrystal1/YPlusSurface
# X in 100 bins of 0.03332 cm
# Y in 1 bin  of 0.4 cm
# Z in 100 bins of 0.0375 cm
# SurfaceTrackCount : Sum   
# Binned by incident track energy in 100 bins of 0.00104 MeV from 0.016 MeV to 0.12 MeV
# First bin is underflow, next to last bin is overflow, last bin is for case of no incident track.
0, 0, 0, 0, 0, 0, 0, 0, 0, 0, 3, 0, 2, 0, 0, 2, 3, 3, 1, 3, 3, 1, 7, 3, 2, 3, 1, 3, 3, 2, 2, 3, 1, 1, 2, 0, 0, 2, 1, 2, 1, 1, 0, 1, 0, 0, 0, 0, 0, 0, 0, 0, 0, 0, 0, 0, 0, 0, 0, 0, 0, 0, 0, 0, 0, 0, 0, 0, 0, 0, 0, 0, 0, 0, 0, 0, 0, 0, 0, 0, 0, 0, 0, 0, 0, 0, 0, 0, 0, 0, 0, 0, 0, 0, 0, 0, 0, 0, 0, 0, 0, 0, 0, 0, 0, 0
0, 0, 1, 2, 0, 2, 0, 0, 0, 0, 1, 1, 0, 0, 0, 2, 3, 2, 3, 3, 2, 3, 2, 1, 5, 0, 7, 2, 1, 0, 3, 6, 1, 4, 2, 1, 3, 4, 2, 0, 7, 0, 1, 0, 1, 0, 0, 0, 0, 0, 0, 0, 0, 0, 0, 0, 0, 0, 0, 0, 0, 0, 0, 0, 0, 0, 0, 0, 0, 0, 0, 0, 0, 0, 0, 0, 0, 0, 0, 0, 0, 0, 0, 0, 0, 0, 0, 0, 0, 0, 0, 0, 0, 0, 0, 0, 0, 0, 0, 0, 0, 0, 0, 0, 0, 0
0, 0, 2, 0, 0, 0, 0, 0, 0, 0, 0, 0, 0, 0, 1, 0, 3, 2, 2, 0, 2, 2, 6, 7, 4, 1, 4, 5, 1, 1, 2, 2, 1, 2, 1, 0, 2, 2, 1, 0, 0, 1, 1, 0, 0, 1, 0, 0, 0, 0, 0, 0, 0, 0, 0, 0, 0, 0, 0, 0, 0, 0, 0, 0, 0, 0, 0, 0, 0, 0, 0, 0, 0, 0, 0, 0, 0, 0, 0, 0, 0, 0, 0, 0, 0, 0, 0, 0, 0, 0, 0, 0, 0, 0, 0, 0, 0, 0, 0, 0, 0, 0, 0, 0, 0, 0
0, 0, 3, 0, 0, 0, 0, 0, 0, 0, 2, 0, 0, 1, 0, 0, 0, 5, 2, 4, 6, 1, 1, 2, 1, 0, 4, 2, 0, 3, 3, 2, 2, 0, 6, 3, 0, 2, 1, 2, 2, 0, 1, 1, 0, 0, 0, 0, 0, 0, 0, 0, 0, 0, 0, 0, 0, 0, 0, 0, 0, 0, 0, 0, 0, 0, 0, 0, 0, 0, 0, 0, 0, 0, 0, 0, 0, 0, 0, 0, 0, 0, 0, 0, 0, 0, 0, 0, 0, 0, 0, 0, 0, 0, 0, 0, 0, 0, 0, 0, 0, 0, 0, 0, 0, 0
0, 0, 4, 0, 0, 0, 2, 0, 0, 2, 0, 0, 0, 1, 1, 1, 1, 1, 3, 1, 0, 2, 3, 3, 4, 2, 1, 6, 0, 2, 1, 1, 2, 3, 3, 3, 0, 1, 0, 2, 0, 2, 5, 0, 0, 1, 0, 0, 0, 0, 0, 0, 0, 0, 0, 0, 0, 0, 0, 0, 0, 0, 0, 0, 0, 0, 0, 0, 0, 0, 0, 0, 0, 0, 0, 0, 0, 0, 0, 0, 0, 0, 0, 0, 0, 0, 0, 0, 0, 0, 0, 0, 0, 0, 0, 0, 0, 0, 0, 0, 0, 0, 0, 0, 0, 0
0, 0, 5, 2, 1, 7, 7, 11, 21, 24, 52, 39, 43, 71, 76, 82, 88, 85, 99, 88, 119, 110, 116, 103, 104, 121, 93, 89, 93, 94, 95, 65, 89, 79, 78, 60, 53, 54, 54, 43, 40, 32, 25, 24, 11, 9, 0, 0, 0, 0, 0, 0, 0, 0, 0, 0, 0, 0, 0, 0, 0, 0, 0, 0, 0, 0, 0, 0, 0, 0, 0, 0, 0, 0, 0, 0, 0, 0, 0, 0, 0, 0, 0, 0, 0, 0, 0, 0, 0, 0, 0, 0, 0, 0, 0, 0, 0, 0, 0, 0, 0, 0, 0, 0, 0, 0
0, 0, 6, 0, 2, 7, 13, 28, 42, 61, 133, 80, 119, 133, 162, 209, 182, 224, 260, 210, 287, 242, 247, 256, 252, 226, 239, 218, 213, 200, 194, 202, 187, 179, 137, 144, 112, 103, 105, 98, 99, 77, 72, 61, 33, 29, 1, 0, 0, 0, 0, 0, 0, 0, 0, 0, 0, 0, 0, 0, 0, 0, 0, 0, 0, 0, 0, 0, 0, 0, 0, 0, 0, 0, 0, 0, 0, 0, 0, 0, 0, 0, 0, 0, 0, 0, 0, 0, 0, 0, 0, 0, 0, 0, 0, 0, 0, 0, 0, 0, 0, 0, 0, 0, 0, 0
0, 0, 7, 1, 3, 12, 17, 35, 38, 54, 139, 102, 114, 131, 151, 179, 207, 208, 250, 256, 223, 244, 212, 244, 215, 261, 217, 228, 233, 233, 191, 197, 177, 183, 164, 146, 160, 136, 104, 82, 74, 76, 77, 53, 38, 16, 4, 0, 0, 0, 0, 0, 0, 0, 0, 0, 0, 0, 0, 0, 0, 0, 0, 0, 0, 0, 0, 0, 0, 0, 0, 0, 0, 0, 0, 0, 0, 0, 0, 0, 0, 0, 0, 0, 0, 0, 0, 0, 0, 0, 0, 0, 0, 0, 0, 0, 0, 0, 0, 0, 0, 0, 0, 0, 0, 0
0, 0, 8, 5, 3, 17, 10, 33, 37, 49, 145, 100, 108, 142, 178, 209, 217, 218, 203, 236, 256, 208, 262, 260, 260, 247, 237, 219, 216, 209, 195, 184, 193, 171, 159, 157, 152, 131, 113, 125, 91, 87, 73, 72, 47, 18, 1, 0, 0, 0, 0, 0, 0, 0, 0, 0, 0, 0, 0, 0, 0, 0, 0, 0, 0, 0, 0, 0, 0, 0, 0, 0, 0, 0, 0, 0, 0, 0, 0, 0, 0, 0, 0, 0, 0, 0, 0, 0, 0, 0, 0, 0, 0, 0, 0, 0, 0, 0, 0, 0, 0, 0, 0, 0, 0, 0
0, 0, 9, 6, 3, 9, 17, 32, 42, 77, 151, 89, 110, 153, 167, 178, 216, 263, 205, 238, 245, 220, 221, 241, 231, 241, 269, 250, 204, 193, 197, 201, 173, 182, 160, 154, 150, 127, 96, 104, 88, 83, 61, 50, 28, 23, 1, 0, 0, 0, 0, 0, 0, 0, 0, 0, 0, 0, 0, 0, 0, 0, 0, 0, 0, 0, 0, 0, 0, 0, 0, 0, 0, 0, 0, 0, 0, 0, 0, 0, 0, 0, 0, 0, 0, 0, 0, 0, 0, 0, 0, 0, 0, 0, 0, 0, 0, 0, 0, 0, 0, 0, 0, 0, 0, 0
0, 0, 10, 1, 3, 7, 15, 23, 29, 65, 113, 102, 110, 137, 187, 202, 206, 233, 234, 245, 225, 244, 214, 229, 234, 280, 226, 208, 223, 197, 191, 187, 165, 155, 155, 140, 138, 152, 122, 86, 101, 71, 57, 49, 38, 21, 0, 0, 0, 0, 0, 0, 0, 0, 0, 0, 0, 0, 0, 0, 0, 0, 0, 0, 0, 0, 0, 0, 0, 0, 0, 0, 0, 0, 0, 0, 0, 0, 0, 0, 0, 0, 0, 0, 0, 0, 0, 0, 0, 0, 0, 0, 0, 0, 0, 0, 0, 0, 0, 0, 0, 0, 0, 0, 0, 0
0, 0, 11, 5, 2, 11, 20, 22, 33, 49, 112, 85, 92, 152, 169, 208, 210, 213, 237, 235, 248, 272, 245, 282, 246, 236, 211, 232, 212, 215, 198, 177, 187, 182, 157, 133, 97, 129, 118, 98, 93, 93, 64, 54, 49, 16, 0, 0, 0, 0, 0, 0, 0, 0, 0, 0, 0, 0, 0, 0, 0, 0, 0, 0, 0, 0, 0, 0, 0, 0, 0, 0, 0, 0, 0, 0, 0, 0, 0, 0, 0, 0, 0, 0, 0, 0, 0, 0, 0, 0, 0, 0, 0, 0, 0, 0, 0, 0, 0, 0, 0, 0, 0, 0, 0, 0
0, 0, 12, 2, 5, 9, 15, 34, 34, 46, 111, 98, 138, 134, 171, 228, 211, 208, 231, 224, 243, 230, 235, 244, 250, 215, 247, 215, 201, 189, 208, 179, 191, 161, 172, 149, 134, 133, 117, 125, 88, 57, 67, 60, 33, 19, 0, 0, 0, 0, 0, 0, 0, 0, 0, 0, 0, 0, 0, 0, 0, 0, 0, 0, 0, 0, 0, 0, 0, 0, 0, 0, 0, 0, 0, 0, 0, 0, 0, 0, 0, 0, 0, 0, 0, 0, 0, 0, 0, 0, 0, 0, 0, 0, 0, 0, 0, 0, 0, 0, 0, 0, 0, 0, 0, 0
0, 0, 13, 6, 5, 4, 16, 20, 49, 66, 122, 91, 113, 157, 166, 202, 207, 221, 229, 258, 250, 236, 297, 249, 254, 213, 221, 221, 221, 195, 180, 209, 174, 183, 163, 128, 141, 131, 95, 124, 95, 71, 67, 66, 38, 27, 1, 0, 0, 0, 0, 0, 0, 0, 0, 0, 0, 0, 0, 0, 0, 0, 0, 0, 0, 0, 0, 0, 0, 0, 0, 0, 0, 0, 0, 0, 0, 0, 0, 0, 0, 0, 0, 0, 0, 0, 0, 0, 0, 0, 0, 0, 0, 0, 0, 0, 0, 0, 0, 0, 0, 0, 0, 0, 0, 0
0, 0, 14, 12, 6, 1, 16, 27, 32, 55, 107, 111, 117, 121, 158, 212, 198, 221, 240, 274, 268, 232, 258, 229, 286, 240, 229, 199, 189, 222, 190, 164, 198, 168, 150, 144, 146, 122, 121, 107, 87, 75, 64, 58, 34, 24, 3, 0, 0, 0, 0, 0, 0, 0, 0, 0, 0, 0, 0, 0, 0, 0, 0, 0, 0, 0, 0, 0, 0, 0, 0, 0, 0, 0, 0, 0, 0, 0, 0, 0, 0, 0, 0, 0, 0, 0, 0, 0, 0, 0, 0, 0, 0, 0, 0, 0, 0, 0, 0, 0, 0, 0, 0, 0, 0, 0
0, 0, 15, 4, 4, 11, 18, 23, 32, 64, 130, 93, 119, 120, 167, 188, 183, 217, 262, 259, 242, 260, 267, 233, 254, 225, 230, 247, 218, 228, 185, 169, 175, 155, 146, 118, 146, 114, 119, 105, 91, 80, 68, 37, 31, 25, 3, 0, 0, 0, 0, 0, 0, 0, 0, 0, 0, 0, 0, 0, 0, 0, 0, 0, 0, 0, 0, 0, 0, 0, 0, 0, 0, 0, 0, 0, 0, 0, 0, 0, 0, 0, 0, 0, 0, 0, 0, 0, 0, 0, 0, 0, 0, 0, 0, 0, 0, 0, 0, 0, 0, 0, 0, 0, 0, 0
0, 0, 16, 3, 4, 7, 13, 27, 34, 64, 106, 94, 126, 138, 176, 188, 212, 192, 222, 240, 240, 244, 233, 244, 233, 254, 210, 212, 187, 208, 198, 189, 165, 163, 168, 137, 149, 128, 111, 97, 70, 74, 62, 41, 25, 20, 2, 0, 0, 0, 0, 0, 0, 0, 0, 0, 0, 0, 0, 0, 0, 0, 0, 0, 0, 0, 0, 0, 0, 0, 0, 0, 0, 0, 0, 0, 0, 0, 0, 0, 0, 0, 0, 0, 0, 0, 0, 0, 0, 0, 0, 0, 0, 0, 0, 0, 0, 0, 0, 0, 0, 0, 0, 0, 0, 0
0, 0, 17, 7, 2, 8, 18, 20, 41, 63, 101, 75, 112, 158, 175, 206, 189, 226, 212, 237, 282, 276, 207, 233, 241, 255, 228, 239, 219, 188, 226, 187, 168, 169, 153, 140, 123, 111, 95, 100, 84, 98, 82, 38, 49, 16, 4, 0, 0, 0, 0, 0, 0, 0, 0, 0, 0, 0, 0, 0, 0, 0, 0, 0, 0, 0, 0, 0, 0, 0, 0, 0, 0, 0, 0, 0, 0, 0, 0, 0, 0, 0, 0, 0, 0, 0, 0, 0, 0, 0, 0, 0, 0, 0, 0, 0, 0, 0, 0, 0, 0, 0, 0, 0, 0, 0
0, 0, 18, 5, 0, 5, 11, 26, 30, 48, 112, 73, 108, 138, 147, 171, 199, 234, 228, 241, 226, 246, 252, 264, 259, 250, 227, 229, 203, 214, 193, 173, 173, 147, 162, 143, 128, 100, 103, 96, 99, 77, 73, 53, 42, 24, 4, 0, 0, 0, 0, 0, 0, 0, 0, 0, 0, 0, 0, 0, 0, 0, 0, 0, 0, 0, 0, 0, 0, 0, 0, 0, 0, 0, 0, 0, 0, 0, 0, 0, 0, 0, 0, 0, 0, 0, 0, 0, 0, 0, 0, 0, 0, 0, 0, 0, 0, 0, 0, 0, 0, 0, 0, 0, 0, 0
0, 0, 19, 8, 3, 8, 14, 32, 33, 75, 103, 108, 114, 123, 172, 203, 208, 215, 228, 265, 217, 293, 237, 250, 231, 264, 254, 270, 225, 218, 184, 169, 168, 175, 164, 140, 139, 121, 124, 97, 84, 67, 64, 53, 32, 19, 1, 0, 0, 0, 0, 0, 0, 0, 0, 0, 0, 0, 0, 0, 0, 0, 0, 0, 0, 0, 0, 0, 0, 0, 0, 0, 0, 0, 0, 0, 0, 0, 0, 0, 0, 0, 0, 0, 0, 0, 0, 0, 0, 0, 0, 0, 0, 0, 0, 0, 0, 0, 0, 0, 0, 0, 0, 0, 0, 0
0, 0, 20, 0, 7, 11, 17, 27, 41, 60, 125, 85, 117, 145, 172, 200, 183, 220, 255, 244, 243, 264, 247, 240, 224, 226, 196, 216, 219, 176, 214, 167, 183, 146, 131, 128, 161, 116, 119, 108, 90, 79, 68, 61, 33, 16, 1, 0, 0, 0, 0, 0, 0, 0, 0, 0, 0, 0, 0, 0, 0, 0, 0, 0, 0, 0, 0, 0, 0, 0, 0, 0, 0, 0, 0, 0, 0, 0, 0, 0, 0, 0, 0, 0, 0, 0, 0, 0, 0, 0, 0, 0, 0, 0, 0, 0, 0, 0, 0, 0, 0, 0, 0, 0, 0, 0
0, 0, 21, 2, 6, 6, 16, 25, 46, 61, 113, 98, 113, 139, 192, 192, 208, 205, 229, 240, 226, 243, 255, 267, 220, 235, 246, 216, 241, 165, 217, 181, 204, 155, 180, 151, 149, 121, 123, 101, 84, 84, 60, 48, 51, 32, 1, 0, 0, 0, 0, 0, 0, 0, 0, 0, 0, 0, 0, 0, 0, 0, 0, 0, 0, 0, 0, 0, 0, 0, 0, 0, 0, 0, 0, 0, 0, 0, 0, 0, 0, 0, 0, 0, 0, 0, 0, 0, 0, 0, 0, 0, 0, 0, 0, 0, 0, 0, 0, 0, 0, 0, 0, 0, 0, 0
0, 0, 22, 2, 4, 7, 12, 23, 49, 50, 109, 98, 103, 146, 174, 172, 207, 196, 231, 227, 230, 269, 275, 281, 226, 248, 220, 201, 213, 197, 214, 180, 175, 194, 154, 130, 141, 104, 99, 100, 87, 86, 68, 69, 46, 16, 0, 0, 0, 0, 0, 0, 0, 0, 0, 0, 0, 0, 0, 0, 0, 0, 0, 0, 0, 0, 0, 0, 0, 0, 0, 0, 0, 0, 0, 0, 0, 0, 0, 0, 0, 0, 0, 0, 0, 0, 0, 0, 0, 0, 0, 0, 0, 0, 0, 0, 0, 0, 0, 0, 0, 0, 0, 0, 0, 0
0, 0, 23, 0, 2, 8, 15, 23, 36, 61, 133, 77, 118, 124, 171, 182, 172, 215, 221, 273, 239, 253, 248, 280, 242, 214, 221, 223, 222, 211, 213, 220, 172, 168, 154, 163, 128, 123, 115, 98, 107, 77, 76, 55, 35, 31, 0, 0, 0, 0, 0, 0, 0, 0, 0, 0, 0, 0, 0, 0, 0, 0, 0, 0, 0, 0, 0, 0, 0, 0, 0, 0, 0, 0, 0, 0, 0, 0, 0, 0, 0, 0, 0, 0, 0, 0, 0, 0, 0, 0, 0, 0, 0, 0, 0, 0, 0, 0, 0, 0, 0, 0, 0, 0, 0, 0
0, 0, 24, 6, 6, 8, 18, 20, 57, 54, 122, 84, 126, 139, 140, 193, 196, 209, 243, 239, 243, 222, 255, 226, 257, 256, 260, 243, 229, 201, 202, 193, 197, 150, 129, 168, 138, 119, 119, 120, 89, 90, 80, 57, 40, 16, 5, 0, 0, 0, 0, 0, 0, 0, 0, 0, 0, 0, 0, 0, 0, 0, 0, 0, 0, 0, 0, 0, 0, 0, 0, 0, 0, 0, 0, 0, 0, 0, 0, 0, 0, 0, 0, 0, 0, 0, 0, 0, 0, 0, 0, 0, 0, 0, 0, 0, 0, 0, 0, 0, 0, 0, 0, 0, 0, 0
0, 0, 25, 3, 1, 10, 11, 19, 48, 57, 123, 103, 101, 165, 181, 201, 184, 222, 227, 260, 236, 308, 257, 258, 247, 229, 256, 230, 223, 207, 196, 205, 162, 167, 146, 155, 139, 119, 104, 103, 96, 84, 66, 64, 50, 22, 1, 0, 0, 0, 0, 0, 0, 0, 0, 0, 0, 0, 0, 0, 0, 0, 0, 0, 0, 0, 0, 0, 0, 0, 0, 0, 0, 0, 0, 0, 0, 0, 0, 0, 0, 0, 0, 0, 0, 0, 0, 0, 0, 0, 0, 0, 0, 0, 0, 0, 0, 0, 0, 0, 0, 0, 0, 0, 0, 0
0, 0, 26, 1, 6, 11, 10, 22, 43, 65, 113, 88, 131, 146, 187, 199, 196, 209, 203, 244, 265, 277, 251, 255, 255, 222, 259, 225, 222, 243, 190, 185, 190, 181, 168, 160, 128, 127, 121, 102, 76, 94, 77, 45, 32, 21, 1, 0, 0, 0, 0, 0, 0, 0, 0, 0, 0, 0, 0, 0, 0, 0, 0, 0, 0, 0, 0, 0, 0, 0, 0, 0, 0, 0, 0, 0, 0, 0, 0, 0, 0, 0, 0, 0, 0, 0, 0, 0, 0, 0, 0, 0, 0, 0, 0, 0, 0, 0, 0, 0, 0, 0, 0, 0, 0, 0
0, 0, 27, 3, 4, 14, 18, 28, 39, 52, 143, 83, 135, 141, 172, 178, 206, 204, 220, 235, 273, 268, 271, 258, 270, 233, 204, 216, 187, 208, 187, 195, 187, 186, 146, 137, 129, 127, 91, 114, 100, 85, 90, 54, 49, 17, 1, 0, 0, 0, 0, 0, 0, 0, 0, 0, 0, 0, 0, 0, 0, 0, 0, 0, 0, 0, 0, 0, 0, 0, 0, 0, 0, 0, 0, 0, 0, 0, 0, 0, 0, 0, 0, 0, 0, 0, 0, 0, 0, 0, 0, 0, 0, 0, 0, 0, 0, 0, 0, 0, 0, 0, 0, 0, 0, 0
0, 0, 28, 2, 4, 4, 17, 30, 38, 58, 110, 97, 121, 147, 164, 200, 205, 210, 257, 241, 211, 249, 257, 253, 222, 234, 269, 226, 211, 192, 208, 168, 194, 174, 173, 130, 138, 128, 105, 94, 90, 92, 56, 70, 42, 27, 2, 0, 0, 0, 0, 0, 0, 0, 0, 0, 0, 0, 0, 0, 0, 0, 0, 0, 0, 0, 0, 0, 0, 0, 0, 0, 0, 0, 0, 0, 0, 0, 0, 0, 0, 0, 0, 0, 0, 0, 0, 0, 0, 0, 0, 0, 0, 0, 0, 0, 0, 0, 0, 0, 0, 0, 0, 0, 0, 0
0, 0, 29, 4, 5, 12, 12, 29, 44, 65, 127, 105, 106, 156, 146, 192, 204, 216, 221, 238, 255, 233, 232, 249, 213, 227, 257, 248, 213, 221, 223, 172, 190, 208, 157, 175, 133, 130, 136, 84, 90, 74, 85, 58, 45, 24, 1, 0, 0, 0, 0, 0, 0, 0, 0, 0, 0, 0, 0, 0, 0, 0, 0, 0, 0, 0, 0, 0, 0, 0, 0, 0, 0, 0, 0, 0, 0, 0, 0, 0, 0, 0, 0, 0, 0, 0, 0, 0, 0, 0, 0, 0, 0, 0, 0, 0, 0, 0, 0, 0, 0, 0, 0, 0, 0, 0
0, 0, 30, 5, 1, 9, 14, 20, 41, 61, 119, 96, 111, 143, 160, 194, 190, 193, 230, 233, 252, 261, 270, 224, 224, 267, 214, 185, 226, 189, 208, 168, 182, 212, 170, 161, 155, 105, 103, 112, 67, 84, 66, 48, 45, 18, 2, 0, 0, 0, 0, 0, 0, 0, 0, 0, 0, 0, 0, 0, 0, 0, 0, 0, 0, 0, 0, 0, 0, 0, 0, 0, 0, 0, 0, 0, 0, 0, 0, 0, 0, 0, 0, 0, 0, 0, 0, 0, 0, 0, 0, 0, 0, 0, 0, 0, 0, 0, 0, 0, 0, 0, 0, 0, 0, 0
0, 0, 31, 2, 2, 8, 12, 20, 46, 69, 110, 89, 103, 147, 163, 185, 218, 201, 218, 239, 263, 248, 269, 236, 214, 220, 234, 255, 217, 230, 234, 172, 183, 196, 170, 167, 119, 116, 121, 103, 95, 86, 70, 55, 35, 25, 1, 0, 0, 0, 0, 0, 0, 0, 0, 0, 0, 0, 0, 0, 0, 0, 0, 0, 0, 0, 0, 0, 0, 0, 0, 0, 0, 0, 0, 0, 0, 0, 0, 0, 0, 0, 0, 0, 0, 0, 0, 0, 0, 0, 0, 0, 0, 0, 0, 0, 0, 0, 0, 0, 0, 0, 0, 0, 0, 0
0, 0, 32, 0, 4, 10, 17, 30, 47, 57, 133, 98, 125, 133, 190, 166, 175, 230, 217, 257, 271, 246, 234, 252, 230, 234, 203, 213, 226, 220, 181, 189, 202, 169, 172, 157, 130, 125, 102, 95, 96, 77, 66, 61, 48, 21, 0, 0, 0, 0, 0, 0, 0, 0, 0, 0, 0, 0, 0, 0, 0, 0, 0, 0, 0, 0, 0, 0, 0, 0, 0, 0, 0, 0, 0, 0, 0, 0, 0, 0, 0, 0, 0, 0, 0, 0, 0, 0, 0, 0, 0, 0, 0, 0, 0, 0, 0, 0, 0, 0, 0, 0, 0, 0, 0, 0
0, 0, 33, 0, 3, 6, 13, 25, 36, 53, 123, 116, 107, 149, 177, 183, 174, 180, 187, 224, 291, 237, 255, 222, 266, 232, 230, 251, 206, 199, 200, 201, 196, 130, 169, 156, 123, 129, 116, 107, 98, 76, 76, 39, 40, 28, 1, 0, 0, 0, 0, 0, 0, 0, 0, 0, 0, 0, 0, 0, 0, 0, 0, 0, 0, 0, 0, 0, 0, 0, 0, 0, 0, 0, 0, 0, 0, 0, 0, 0, 0, 0, 0, 0, 0, 0, 0, 0, 0, 0, 0, 0, 0, 0, 0, 0, 0, 0, 0, 0, 0, 0, 0, 0, 0, 0
0, 0, 34, 3, 4, 6, 18, 23, 40, 61, 104, 92, 120, 138, 163, 186, 189, 204, 237, 247, 241, 240, 255, 221, 269, 218, 200, 197, 231, 195, 166, 184, 183, 162, 164, 161, 135, 108, 124, 99, 91, 74, 77, 43, 34, 28, 1, 0, 0, 0, 0, 0, 0, 0, 0, 0, 0, 0, 0, 0, 0, 0, 0, 0, 0, 0, 0, 0, 0, 0, 0, 0, 0, 0, 0, 0, 0, 0, 0, 0, 0, 0, 0, 0, 0, 0, 0, 0, 0, 0, 0, 0, 0, 0, 0, 0, 0, 0, 0, 0, 0, 0, 0, 0, 0, 0
0, 0, 35, 2, 7, 11, 19, 22, 35, 64, 125, 88, 130, 144, 181, 171, 193, 224, 195, 250, 243, 244, 279, 214, 254, 232, 243, 243, 238, 213, 198, 195, 188, 177, 149, 165, 141, 130, 110, 110, 86, 87, 68, 37, 54, 15, 2, 0, 0, 0, 0, 0, 0, 0, 0, 0, 0, 0, 0, 0, 0, 0, 0, 0, 0, 0, 0, 0, 0, 0, 0, 0, 0, 0, 0, 0, 0, 0, 0, 0, 0, 0, 0, 0, 0, 0, 0, 0, 0, 0, 0, 0, 0, 0, 0, 0, 0, 0, 0, 0, 0, 0, 0, 0, 0, 0
0, 0, 36, 5, 2, 12, 15, 24, 46, 52, 113, 84, 126, 126, 169, 170, 191, 212, 220, 242, 249, 278, 214, 253, 252, 268, 247, 223, 199, 211, 212, 187, 186, 177, 135, 126, 117, 128, 120, 107, 94, 83, 62, 58, 49, 19, 0, 0, 0, 0, 0, 0, 0, 0, 0, 0, 0, 0, 0, 0, 0, 0, 0, 0, 0, 0, 0, 0, 0, 0, 0, 0, 0, 0, 0, 0, 0, 0, 0, 0, 0, 0, 0, 0, 0, 0, 0, 0, 0, 0, 0, 0, 0, 0, 0, 0, 0, 0, 0, 0, 0, 0, 0, 0, 0, 0
0, 0, 37, 4, 2, 6, 8, 24, 41, 51, 112, 88, 124, 135, 186, 185, 213, 224, 254, 216, 234, 240, 263, 246, 256, 240, 241, 238, 220, 194, 204, 169, 149, 148, 157, 148, 119, 119, 110, 106, 108, 94, 68, 55, 52, 26, 0, 0, 0, 0, 0, 0, 0, 0, 0, 0, 0, 0, 0, 0, 0, 0, 0, 0, 0, 0, 0, 0, 0, 0, 0, 0, 0, 0, 0, 0, 0, 0, 0, 0, 0, 0, 0, 0, 0, 0, 0, 0, 0, 0, 0, 0, 0, 0, 0, 0, 0, 0, 0, 0, 0, 0, 0, 0, 0, 0
0, 0, 38, 2, 4, 7, 14, 19, 50, 54, 120, 79, 120, 153, 162, 210, 196, 208, 247, 239, 271, 260, 252, 275, 248, 206, 245, 177, 224, 209, 223, 187, 160, 171, 137, 143, 141, 137, 112, 100, 96, 73, 57, 51, 41, 28, 2, 0, 0, 0, 0, 0, 0, 0, 0, 0, 0, 0, 0, 0, 0, 0, 0, 0, 0, 0, 0, 0, 0, 0, 0, 0, 0, 0, 0, 0, 0, 0, 0, 0, 0, 0, 0, 0, 0, 0, 0, 0, 0, 0, 0, 0, 0, 0, 0, 0, 0, 0, 0, 0, 0, 0, 0, 0, 0, 0
0, 0, 39, 0, 3, 4, 16, 18, 39, 51, 113, 114, 126, 156, 146, 187, 169, 197, 225, 230, 259, 258, 219, 284, 230, 246, 231, 216, 243, 194, 215, 166, 180, 201, 151, 158, 136, 109, 119, 116, 74, 70, 77, 47, 21, 16, 2, 0, 0, 0, 0, 0, 0, 0, 0, 0, 0, 0, 0, 0, 0, 0, 0, 0, 0, 0, 0, 0, 0, 0, 0, 0, 0, 0, 0, 0, 0, 0, 0, 0, 0, 0, 0, 0, 0, 0, 0, 0, 0, 0, 0, 0, 0, 0, 0, 0, 0, 0, 0, 0, 0, 0, 0, 0, 0, 0
0, 0, 40, 0, 3, 7, 15, 25, 49, 54, 122, 99, 103, 140, 192, 183, 218, 199, 245, 235, 286, 232, 242, 266, 253, 240, 230, 215, 199, 212, 190, 176, 165, 201, 175, 146, 153, 128, 115, 117, 88, 76, 73, 48, 38, 16, 1, 0, 0, 0, 0, 0, 0, 0, 0, 0, 0, 0, 0, 0, 0, 0, 0, 0, 0, 0, 0, 0, 0, 0, 0, 0, 0, 0, 0, 0, 0, 0, 0, 0, 0, 0, 0, 0, 0, 0, 0, 0, 0, 0, 0, 0, 0, 0, 0, 0, 0, 0, 0, 0, 0, 0, 0, 0, 0, 0
0, 0, 41, 2, 0, 8, 19, 19, 38, 49, 108, 72, 101, 121, 147, 190, 161, 185, 210, 209, 226, 250, 256, 206, 199, 226, 223, 246, 207, 194, 175, 166, 154, 155, 153, 149, 139, 117, 115, 99, 62, 74, 58, 41, 43, 19, 1, 0, 0, 0, 0, 0, 0, 0, 0, 0, 0, 0, 0, 0, 0, 0, 0, 0, 0, 0, 0, 0, 0, 0, 0, 0, 0, 0, 0, 0, 0, 0, 0, 0, 0, 0, 0, 0, 0, 0, 0, 0, 0, 0, 0, 0, 0, 0, 0, 0, 0, 0, 0, 0, 0, 0, 0, 0, 0, 0
0, 0, 42, 0, 4, 7, 11, 15, 26, 42, 54, 66, 71, 99, 112, 152, 134, 158, 145, 156, 180, 184, 207, 177, 160, 172, 181, 184, 147, 159, 156, 159, 138, 138, 109, 128, 137, 87, 75, 88, 67, 67, 42, 49, 43, 12, 4, 0, 0, 0, 0, 0, 0, 0, 0, 0, 0, 0, 0, 0, 0, 0, 0, 0, 0, 0, 0, 0, 0, 0, 0, 0, 0, 0, 0, 0, 0, 0, 0, 0, 0, 0, 0, 0, 0, 0, 0, 0, 0, 0, 0, 0, 0, 0, 0, 0, 0, 0, 0, 0, 0, 0, 0, 0, 0, 0
0, 0, 43, 0, 1, 5, 3, 13, 15, 34, 57, 59, 63, 80, 80, 105, 104, 121, 138, 114, 150, 135, 147, 145, 160, 125, 132, 127, 128, 114, 102, 106, 97, 96, 104, 92, 81, 82, 67, 72, 48, 65, 54, 38, 30, 16, 1, 0, 0, 0, 0, 0, 0, 0, 0, 0, 0, 0, 0, 0, 0, 0, 0, 0, 0, 0, 0, 0, 0, 0, 0, 0, 0, 0, 0, 0, 0, 0, 0, 0, 0, 0, 0, 0, 0, 0, 0, 0, 0, 0, 0, 0, 0, 0, 0, 0, 0, 0, 0, 0, 0, 0, 0, 0, 0, 0
0, 0, 44, 4, 1, 2, 5, 8, 21, 17, 42, 39, 45, 64, 64, 62, 63, 93, 105, 111, 98, 124, 90, 107, 127, 96, 102, 98, 111, 97, 94, 69, 83, 101, 79, 70, 72, 79, 52, 42, 58, 40, 28, 36, 18, 9, 2, 0, 0, 0, 0, 0, 0, 0, 0, 0, 0, 0, 0, 0, 0, 0, 0, 0, 0, 0, 0, 0, 0, 0, 0, 0, 0, 0, 0, 0, 0, 0, 0, 0, 0, 0, 0, 0, 0, 0, 0, 0, 0, 0, 0, 0, 0, 0, 0, 0, 0, 0, 0, 0, 0, 0, 0, 0, 0, 0
0, 0, 45, 0, 2, 3, 2, 6, 10, 20, 40, 35, 31, 49, 45, 64, 62, 68, 68, 90, 103, 84, 81, 80, 86, 78, 78, 76, 61, 87, 84, 69, 71, 70, 61, 51, 48, 56, 52, 32, 29, 38, 24, 19, 15, 12, 0, 0, 0, 0, 0, 0, 0, 0, 0, 0, 0, 0, 0, 0, 0, 0, 0, 0, 0, 0, 0, 0, 0, 0, 0, 0, 0, 0, 0, 0, 0, 0, 0, 0, 0, 0, 0, 0, 0, 0, 0, 0, 0, 0, 0, 0, 0, 0, 0, 0, 0, 0, 0, 0, 0, 0, 0, 0, 0, 0
0, 0, 46, 0, 0, 1, 4, 4, 4, 8, 20, 19, 20, 22, 40, 38, 39, 35, 51, 60, 50, 66, 63, 56, 62, 51, 64, 60, 53, 55, 57, 56, 51, 55, 53, 37, 45, 38, 35, 24, 21, 16, 25, 13, 16, 7, 1, 0, 0, 0, 0, 0, 0, 0, 0, 0, 0, 0, 0, 0, 0, 0, 0, 0, 0, 0, 0, 0, 0, 0, 0, 0, 0, 0, 0, 0, 0, 0, 0, 0, 0, 0, 0, 0, 0, 0, 0, 0, 0, 0, 0, 0, 0, 0, 0, 0, 0, 0, 0, 0, 0, 0, 0, 0, 0, 0
0, 0, 47, 0, 2, 2, 0, 1, 3, 11, 14, 8, 14, 11, 15, 21, 23, 33, 31, 43, 35, 51, 41, 44, 41, 49, 52, 34, 53, 31, 26, 32, 50, 41, 36, 37, 31, 23, 27, 32, 29, 18, 21, 15, 14, 4, 0, 0, 0, 0, 0, 0, 0, 0, 0, 0, 0, 0, 0, 0, 0, 0, 0, 0, 0, 0, 0, 0, 0, 0, 0, 0, 0, 0, 0, 0, 0, 0, 0, 0, 0, 0, 0, 0, 0, 0, 0, 0, 0, 0, 0, 0, 0, 0, 0, 0, 0, 0, 0, 0, 0, 0, 0, 0, 0, 0
0, 0, 48, 0, 0, 2, 0, 1, 0, 1, 14, 3, 6, 14, 13, 16, 20, 16, 20, 17, 19, 32, 31, 31, 27, 30, 35, 37, 37, 38, 39, 45, 31, 40, 23, 31, 37, 23, 39, 35, 12, 10, 24, 15, 9, 5, 0, 0, 0, 0, 0, 0, 0, 0, 0, 0, 0, 0, 0, 0, 0, 0, 0, 0, 0, 0, 0, 0, 0, 0, 0, 0, 0, 0, 0, 0, 0, 0, 0, 0, 0, 0, 0, 0, 0, 0, 0, 0, 0, 0, 0, 0, 0, 0, 0, 0, 0, 0, 0, 0, 0, 0, 0, 0, 0, 0
0, 0, 49, 0, 0, 0, 0, 1, 1, 3, 6, 2, 2, 4, 5, 8, 13, 14, 16, 19, 20, 28, 22, 19, 26, 32, 37, 32, 31, 20, 33, 27, 20, 32, 34, 24, 24, 25, 20, 27, 18, 21, 16, 10, 12, 5, 0, 0, 0, 0, 0, 0, 0, 0, 0, 0, 0, 0, 0, 0, 0, 0, 0, 0, 0, 0, 0, 0, 0, 0, 0, 0, 0, 0, 0, 0, 0, 0, 0, 0, 0, 0, 0, 0, 0, 0, 0, 0, 0, 0, 0, 0, 0, 0, 0, 0, 0, 0, 0, 0, 0, 0, 0, 0, 0, 0
0, 0, 50, 3, 0, 0, 0, 0, 0, 0, 3, 1, 2, 4, 10, 9, 9, 17, 15, 18, 32, 23, 33, 38, 33, 31, 37, 29, 40, 32, 38, 25, 25, 30, 23, 23, 20, 24, 22, 25, 23, 15, 11, 8, 5, 3, 0, 0, 0, 0, 0, 0, 0, 0, 0, 0, 0, 0, 0, 0, 0, 0, 0, 0, 0, 0, 0, 0, 0, 0, 0, 0, 0, 0, 0, 0, 0, 0, 0, 0, 0, 0, 0, 0, 0, 0, 0, 0, 0, 0, 0, 0, 0, 0, 0, 0, 0, 0, 0, 0, 0, 0, 0, 0, 0, 0
0, 0, 51, 0, 0, 1, 1, 2, 3, 3, 5, 2, 6, 7, 22, 14, 13, 19, 29, 21, 22, 29, 38, 34, 29, 29, 24, 37, 34, 34, 36, 23, 25, 37, 27, 37, 20, 18, 24, 19, 20, 24, 22, 9, 6, 3, 0, 0, 0, 0, 0, 0, 0, 0, 0, 0, 0, 0, 0, 0, 0, 0, 0, 0, 0, 0, 0, 0, 0, 0, 0, 0, 0, 0, 0, 0, 0, 0, 0, 0, 0, 0, 0, 0, 0, 0, 0, 0, 0, 0, 0, 0, 0, 0, 0, 0, 0, 0, 0, 0, 0, 0, 0, 0, 0, 0
0, 0, 52, 0, 0, 3, 0, 0, 3, 5, 13, 7, 16, 19, 18, 30, 17, 34, 30, 28, 44, 35, 43, 51, 48, 47, 48, 37, 56, 44, 41, 37, 34, 33, 34, 38, 30, 41, 28, 19, 24, 19, 15, 16, 11, 5, 1, 0, 0, 0, 0, 0, 0, 0, 0, 0, 0, 0, 0, 0, 0, 0, 0, 0, 0, 0, 0, 0, 0, 0, 0, 0, 0, 0, 0, 0, 0, 0, 0, 0, 0, 0, 0, 0, 0, 0, 0, 0, 0, 0, 0, 0, 0, 0, 0, 0, 0, 0, 0, 0, 0, 0, 0, 0, 0, 0
0, 0, 53, 2, 1, 0, 2, 7, 6, 11, 17, 14, 12, 27, 29, 41, 41, 41, 37, 43, 66, 62, 64, 51, 50, 47, 86, 64, 80, 55, 53, 48, 60, 45, 51, 33, 44, 31, 23, 33, 23, 28, 27, 9, 13, 6, 0, 0, 0, 0, 0, 0, 0, 0, 0, 0, 0, 0, 0, 0, 0, 0, 0, 0, 0, 0, 0, 0, 0, 0, 0, 0, 0, 0, 0, 0, 0, 0, 0, 0, 0, 0, 0, 0, 0, 0, 0, 0, 0, 0, 0, 0, 0, 0, 0, 0, 0, 0, 0, 0, 0, 0, 0, 0, 0, 0
0, 0, 54, 0, 1, 2, 1, 3, 11, 14, 31, 29, 32, 47, 39, 62, 71, 73, 76, 88, 99, 85, 78, 86, 76, 88, 83, 86, 78, 71, 74, 79, 74, 70, 69, 50, 53, 42, 41, 44, 30, 36, 19, 20, 22, 7, 2, 0, 0, 0, 0, 0, 0, 0, 0, 0, 0, 0, 0, 0, 0, 0, 0, 0, 0, 0, 0, 0, 0, 0, 0, 0, 0, 0, 0, 0, 0, 0, 0, 0, 0, 0, 0, 0, 0, 0, 0, 0, 0, 0, 0, 0, 0, 0, 0, 0, 0, 0, 0, 0, 0, 0, 0, 0, 0, 0
0, 0, 55, 0, 0, 1, 4, 11, 15, 25, 41, 47, 49, 49, 57, 85, 85, 93, 82, 120, 122, 119, 104, 94, 114, 115, 101, 129, 109, 80, 93, 86, 78, 84, 64, 78, 79, 51, 67, 51, 42, 33, 36, 28, 16, 12, 1, 0, 0, 0, 0, 0, 0, 0, 0, 0, 0, 0, 0, 0, 0, 0, 0, 0, 0, 0, 0, 0, 0, 0, 0, 0, 0, 0, 0, 0, 0, 0, 0, 0, 0, 0, 0, 0, 0, 0, 0, 0, 0, 0, 0, 0, 0, 0, 0, 0, 0, 0, 0, 0, 0, 0, 0, 0, 0, 0
0, 0, 56, 1, 2, 3, 5, 6, 17, 27, 58, 37, 67, 84, 100, 99, 98, 116, 161, 146, 141, 150, 131, 159, 141, 136, 163, 141, 136, 139, 122, 100, 118, 105, 84, 105, 79, 80, 66, 60, 67, 62, 51, 23, 35, 10, 1, 0, 0, 0, 0, 0, 0, 0, 0, 0, 0, 0, 0, 0, 0, 0, 0, 0, 0, 0, 0, 0, 0, 0, 0, 0, 0, 0, 0, 0, 0, 0, 0, 0, 0, 0, 0, 0, 0, 0, 0, 0, 0, 0, 0, 0, 0, 0, 0, 0, 0, 0, 0, 0, 0, 0, 0, 0, 0, 0
0, 0, 57, 0, 6, 7, 10, 17, 26, 42, 74, 67, 89, 85, 132, 143, 126, 168, 163, 160, 171, 180, 170, 174, 179, 194, 167, 187, 187, 150, 119, 134, 141, 134, 113, 107, 107, 90, 67, 89, 72, 60, 39, 40, 28, 18, 1, 0, 0, 0, 0, 0, 0, 0, 0, 0, 0, 0, 0, 0, 0, 0, 0, 0, 0, 0, 0, 0, 0, 0, 0, 0, 0, 0, 0, 0, 0, 0, 0, 0, 0, 0, 0, 0, 0, 0, 0, 0, 0, 0, 0, 0, 0, 0, 0, 0, 0, 0, 0, 0, 0, 0, 0, 0, 0, 0
0, 0, 58, 6, 1, 8, 11, 19, 24, 62, 103, 95, 101, 147, 168, 177, 177, 197, 239, 202, 215, 234, 228, 218, 213, 200, 219, 229, 194, 212, 175, 189, 169, 165, 136, 138, 116, 108, 95, 91, 92, 79, 71, 55, 41, 22, 0, 0, 0, 0, 0, 0, 0, 0, 0, 0, 0, 0, 0, 0, 0, 0, 0, 0, 0, 0, 0, 0, 0, 0, 0, 0, 0, 0, 0, 0, 0, 0, 0, 0, 0, 0, 0, 0, 0, 0, 0, 0, 0, 0, 0, 0, 0, 0, 0, 0, 0, 0, 0, 0, 0, 0, 0, 0, 0, 0
0, 0, 59, 3, 5, 8, 15, 23, 35, 55, 102, 111, 103, 130, 169, 195, 187, 226, 230, 233, 268, 214, 259, 242, 260, 256, 234, 227, 234, 208, 203, 186, 165, 163, 166, 147, 142, 110, 116, 112, 79, 62, 66, 42, 37, 27, 0, 0, 0, 0, 0, 0, 0, 0, 0, 0, 0, 0, 0, 0, 0, 0, 0, 0, 0, 0, 0, 0, 0, 0, 0, 0, 0, 0, 0, 0, 0, 0, 0, 0, 0, 0, 0, 0, 0, 0, 0, 0, 0, 0, 0, 0, 0, 0, 0, 0, 0, 0, 0, 0, 0, 0, 0, 0, 0, 0
0, 0, 60, 3, 3, 6, 7, 29, 51, 58, 119, 92, 133, 127, 175, 193, 220, 225, 231, 229, 238, 291, 220, 260, 199, 253, 225, 226, 221, 193, 194, 188, 177, 168, 152, 145, 125, 123, 112, 121, 95, 73, 70, 58, 45, 28, 2, 0, 0, 0, 0, 0, 0, 0, 0, 0, 0, 0, 0, 0, 0, 0, 0, 0, 0, 0, 0, 0, 0, 0, 0, 0, 0, 0, 0, 0, 0, 0, 0, 0, 0, 0, 0, 0, 0, 0, 0, 0, 0, 0, 0, 0, 0, 0, 0, 0, 0, 0, 0, 0, 0, 0, 0, 0, 0, 0
0, 0, 61, 4, 3, 9, 14, 18, 41, 56, 117, 103, 120, 140, 189, 199, 187, 185, 230, 267, 258, 250, 237, 248, 237, 210, 222, 235, 220, 201, 202, 181, 163, 184, 147, 145, 127, 136, 147, 90, 82, 80, 76, 59, 38, 18, 0, 0, 0, 0, 0, 0, 0, 0, 0, 0, 0, 0, 0, 0, 0, 0, 0, 0, 0, 0, 0, 0, 0, 0, 0, 0, 0, 0, 0, 0, 0, 0, 0, 0, 0, 0, 0, 0, 0, 0, 0, 0, 0, 0, 0, 0, 0, 0, 0, 0, 0, 0, 0, 0, 0, 0, 0, 0, 0, 0
0, 0, 62, 1, 3, 8, 21, 19, 40, 64, 98, 96, 110, 140, 171, 189, 183, 193, 217, 226, 246, 254, 225, 253, 210, 212, 254, 212, 236, 205, 184, 202, 206, 182, 168, 141, 139, 114, 108, 113, 86, 74, 59, 60, 47, 12, 0, 0, 0, 0, 0, 0, 0, 0, 0, 0, 0, 0, 0, 0, 0, 0, 0, 0, 0, 0, 0, 0, 0, 0, 0, 0, 0, 0, 0, 0, 0, 0, 0, 0, 0, 0, 0, 0, 0, 0, 0, 0, 0, 0, 0, 0, 0, 0, 0, 0, 0, 0, 0, 0, 0, 0, 0, 0, 0, 0
0, 0, 63, 1, 3, 6, 13, 27, 35, 47, 120, 103, 123, 150, 163, 201, 190, 204, 230, 235, 239, 290, 282, 253, 249, 230, 264, 230, 207, 199, 207, 200, 192, 185, 134, 152, 149, 138, 106, 112, 93, 83, 72, 64, 38, 19, 3, 0, 0, 0, 0, 0, 0, 0, 0, 0, 0, 0, 0, 0, 0, 0, 0, 0, 0, 0, 0, 0, 0, 0, 0, 0, 0, 0, 0, 0, 0, 0, 0, 0, 0, 0, 0, 0, 0, 0, 0, 0, 0, 0, 0, 0, 0, 0, 0, 0, 0, 0, 0, 0, 0, 0, 0, 0, 0, 0
0, 0, 64, 6, 4, 12, 9, 22, 34, 66, 109, 103, 114, 140, 162, 186, 202, 232, 200, 231, 241, 240, 213, 248, 246, 257, 242, 210, 205, 203, 218, 209, 203, 187, 163, 139, 142, 118, 113, 101, 104, 77, 63, 50, 24, 16, 0, 0, 0, 0, 0, 0, 0, 0, 0, 0, 0, 0, 0, 0, 0, 0, 0, 0, 0, 0, 0, 0, 0, 0, 0, 0, 0, 0, 0, 0, 0, 0, 0, 0, 0, 0, 0, 0, 0, 0, 0, 0, 0, 0, 0, 0, 0, 0, 0, 0, 0, 0, 0, 0, 0, 0, 0, 0, 0, 0
0, 0, 65, 1, 4, 12, 20, 38, 33, 51, 117, 97, 109, 140, 170, 187, 225, 200, 223, 243, 263, 231, 226, 224, 227, 252, 260, 227, 209, 237, 194, 178, 186, 185, 162, 176, 171, 124, 106, 103, 82, 82, 72, 70, 40, 21, 2, 0, 0, 0, 0, 0, 0, 0, 0, 0, 0, 0, 0, 0, 0, 0, 0, 0, 0, 0, 0, 0, 0, 0, 0, 0, 0, 0, 0, 0, 0, 0, 0, 0, 0, 0, 0, 0, 0, 0, 0, 0, 0, 0, 0, 0, 0, 0, 0, 0, 0, 0, 0, 0, 0, 0, 0, 0, 0, 0
0, 0, 66, 2, 7, 8, 9, 21, 41, 49, 95, 97, 125, 140, 158, 205, 219, 210, 240, 238, 241, 261, 238, 225, 232, 243, 229, 235, 204, 210, 214, 185, 200, 174, 126, 171, 141, 148, 134, 114, 87, 83, 54, 60, 42, 22, 0, 0, 0, 0, 0, 0, 0, 0, 0, 0, 0, 0, 0, 0, 0, 0, 0, 0, 0, 0, 0, 0, 0, 0, 0, 0, 0, 0, 0, 0, 0, 0, 0, 0, 0, 0, 0, 0, 0, 0, 0, 0, 0, 0, 0, 0, 0, 0, 0, 0, 0, 0, 0, 0, 0, 0, 0, 0, 0, 0
0, 0, 67, 3, 2, 10, 22, 17, 39, 64, 125, 113, 105, 140, 168, 208, 198, 198, 253, 249, 252, 243, 262, 226, 234, 236, 230, 198, 226, 195, 181, 194, 157, 170, 171, 143, 127, 137, 137, 115, 95, 88, 70, 58, 34, 16, 2, 0, 0, 0, 0, 0, 0, 0, 0, 0, 0, 0, 0, 0, 0, 0, 0, 0, 0, 0, 0, 0, 0, 0, 0, 0, 0, 0, 0, 0, 0, 0, 0, 0, 0, 0, 0, 0, 0, 0, 0, 0, 0, 0, 0, 0, 0, 0, 0, 0, 0, 0, 0, 0, 0, 0, 0, 0, 0, 0
0, 0, 68, 0, 6, 12, 15, 25, 43, 69, 127, 101, 109, 133, 154, 191, 194, 215, 247, 245, 260, 239, 252, 279, 244, 254, 215, 203, 234, 219, 190, 213, 174, 184, 150, 142, 143, 133, 121, 96, 84, 74, 63, 39, 45, 26, 2, 0, 0, 0, 0, 0, 0, 0, 0, 0, 0, 0, 0, 0, 0, 0, 0, 0, 0, 0, 0, 0, 0, 0, 0, 0, 0, 0, 0, 0, 0, 0, 0, 0, 0, 0, 0, 0, 0, 0, 0, 0, 0, 0, 0, 0, 0, 0, 0, 0, 0, 0, 0, 0, 0, 0, 0, 0, 0, 0
0, 0, 69, 1, 3, 8, 12, 25, 37, 62, 109, 98, 128, 129, 166, 179, 214, 198, 216, 224, 260, 265, 241, 279, 260, 235, 215, 227, 224, 202, 196, 210, 178, 171, 166, 150, 116, 111, 108, 109, 99, 78, 69, 58, 53, 20, 0, 0, 0, 0, 0, 0, 0, 0, 0, 0, 0, 0, 0, 0, 0, 0, 0, 0, 0, 0, 0, 0, 0, 0, 0, 0, 0, 0, 0, 0, 0, 0, 0, 0, 0, 0, 0, 0, 0, 0, 0, 0, 0, 0, 0, 0, 0, 0, 0, 0, 0, 0, 0, 0, 0, 0, 0, 0, 0, 0
0, 0, 70, 0, 6, 3, 22, 26, 38, 53, 131, 102, 117, 139, 158, 203, 208, 201, 195, 242, 254, 194, 223, 266, 249, 246, 224, 237, 222, 195, 199, 200, 171, 165, 168, 141, 136, 130, 126, 99, 83, 78, 63, 71, 45, 17, 1, 0, 0, 0, 0, 0, 0, 0, 0, 0, 0, 0, 0, 0, 0, 0, 0, 0, 0, 0, 0, 0, 0, 0, 0, 0, 0, 0, 0, 0, 0, 0, 0, 0, 0, 0, 0, 0, 0, 0, 0, 0, 0, 0, 0, 0, 0, 0, 0, 0, 0, 0, 0, 0, 0, 0, 0, 0, 0, 0
0, 0, 71, 5, 5, 10, 14, 20, 32, 61, 123, 101, 146, 130, 165, 203, 236, 248, 248, 234, 220, 244, 253, 233, 261, 227, 236, 202, 232, 188, 199, 178, 162, 171, 167, 142, 123, 120, 113, 95, 73, 88, 65, 47, 46, 21, 2, 0, 0, 0, 0, 0, 0, 0, 0, 0, 0, 0, 0, 0, 0, 0, 0, 0, 0, 0, 0, 0, 0, 0, 0, 0, 0, 0, 0, 0, 0, 0, 0, 0, 0, 0, 0, 0, 0, 0, 0, 0, 0, 0, 0, 0, 0, 0, 0, 0, 0, 0, 0, 0, 0, 0, 0, 0, 0, 0
0, 0, 72, 0, 6, 10, 13, 19, 44, 60, 123, 78, 112, 137, 187, 181, 198, 252, 192, 255, 247, 278, 257, 266, 270, 224, 271, 204, 216, 213, 200, 193, 156, 162, 151, 137, 130, 143, 136, 113, 82, 75, 73, 59, 30, 17, 0, 0, 0, 0, 0, 0, 0, 0, 0, 0, 0, 0, 0, 0, 0, 0, 0, 0, 0, 0, 0, 0, 0, 0, 0, 0, 0, 0, 0, 0, 0, 0, 0, 0, 0, 0, 0, 0, 0, 0, 0, 0, 0, 0, 0, 0, 0, 0, 0, 0, 0, 0, 0, 0, 0, 0, 0, 0, 0, 0
0, 0, 73, 2, 3, 4, 17, 25, 51, 53, 111, 98, 113, 143, 162, 206, 186, 196, 229, 242, 225, 207, 237, 270, 234, 215, 216, 233, 226, 207, 179, 214, 202, 128, 155, 151, 134, 139, 117, 104, 87, 75, 62, 60, 47, 25, 0, 0, 0, 0, 0, 0, 0, 0, 0, 0, 0, 0, 0, 0, 0, 0, 0, 0, 0, 0, 0, 0, 0, 0, 0, 0, 0, 0, 0, 0, 0, 0, 0, 0, 0, 0, 0, 0, 0, 0, 0, 0, 0, 0, 0, 0, 0, 0, 0, 0, 0, 0, 0, 0, 0, 0, 0, 0, 0, 0
0, 0, 74, 1, 1, 12, 21, 14, 33, 64, 107, 114, 95, 157, 194, 199, 206, 257, 232, 221, 228, 250, 229, 248, 243, 235, 236, 227, 222, 182, 206, 192, 160, 190, 167, 157, 133, 132, 108, 92, 90, 61, 68, 49, 29, 24, 4, 0, 0, 0, 0, 0, 0, 0, 0, 0, 0, 0, 0, 0, 0, 0, 0, 0, 0, 0, 0, 0, 0, 0, 0, 0, 0, 0, 0, 0, 0, 0, 0, 0, 0, 0, 0, 0, 0, 0, 0, 0, 0, 0, 0, 0, 0, 0, 0, 0, 0, 0, 0, 0, 0, 0, 0, 0, 0, 0
0, 0, 75, 6, 4, 8, 17, 27, 40, 65, 118, 104, 116, 142, 191, 207, 185, 188, 221, 257, 241, 234, 255, 235, 217, 241, 237, 222, 241, 216, 210, 172, 161, 173, 171, 148, 135, 109, 126, 109, 100, 78, 72, 53, 37, 21, 0, 0, 0, 0, 0, 0, 0, 0, 0, 0, 0, 0, 0, 0, 0, 0, 0, 0, 0, 0, 0, 0, 0, 0, 0, 0, 0, 0, 0, 0, 0, 0, 0, 0, 0, 0, 0, 0, 0, 0, 0, 0, 0, 0, 0, 0, 0, 0, 0, 0, 0, 0, 0, 0, 0, 0, 0, 0, 0, 0
0, 0, 76, 3, 4, 6, 13, 33, 36, 66, 99, 98, 92, 132, 160, 199, 207, 222, 225, 243, 257, 239, 240, 267, 232, 242, 249, 232, 215, 199, 187, 219, 169, 151, 161, 129, 119, 114, 119, 101, 101, 73, 44, 51, 30, 24, 3, 0, 0, 0, 0, 0, 0, 0, 0, 0, 0, 0, 0, 0, 0, 0, 0, 0, 0, 0, 0, 0, 0, 0, 0, 0, 0, 0, 0, 0, 0, 0, 0, 0, 0, 0, 0, 0, 0, 0, 0, 0, 0, 0, 0, 0, 0, 0, 0, 0, 0, 0, 0, 0, 0, 0, 0, 0, 0, 0
0, 0, 77, 4, 3, 6, 11, 28, 40, 59, 127, 95, 106, 150, 155, 193, 170, 211, 215, 235, 254, 240, 272, 241, 257, 243, 259, 239, 211, 208, 214, 190, 152, 173, 163, 159, 135, 121, 96, 106, 96, 84, 65, 53, 51, 29, 1, 0, 0, 0, 0, 0, 0, 0, 0, 0, 0, 0, 0, 0, 0, 0, 0, 0, 0, 0, 0, 0, 0, 0, 0, 0, 0, 0, 0, 0, 0, 0, 0, 0, 0, 0, 0, 0, 0, 0, 0, 0, 0, 0, 0, 0, 0, 0, 0, 0, 0, 0, 0, 0, 0, 0, 0, 0, 0, 0
