# TOPAS Version: 3.1.p3
# Parameter File: REDLEN_small_phantom_mc_basic_3cm.txt
# Results for scorer PhantomDose
# Scored on surface: CdTeCrystal1/YPlusSurface
# X in 100 bins of 0.03332 cm
# Y in 1 bin  of 0.4 cm
# Z in 100 bins of 0.0375 cm
# SurfaceTrackCount : Sum   
# Binned by incident track energy in 100 bins of 0.00104 MeV from 0.016 MeV to 0.12 MeV
# First bin is underflow, next to last bin is overflow, last bin is for case of no incident track.
0, 0, 0, 1, 0, 0, 0, 0, 0, 1, 0, 0, 0, 1, 1, 0, 1, 3, 2, 3, 4, 1, 1, 2, 0, 9, 1, 4, 1, 2, 1, 1, 5, 1, 0, 1, 3, 1, 3, 1, 0, 0, 1, 1, 0, 0, 0, 0, 0, 0, 0, 0, 0, 0, 0, 0, 0, 0, 0, 0, 0, 0, 0, 0, 0, 0, 0, 0, 0, 0, 0, 0, 0, 0, 0, 0, 0, 0, 0, 0, 0, 0, 0, 0, 0, 0, 0, 0, 0, 0, 0, 0, 0, 0, 0, 0, 0, 0, 0, 0, 0, 0, 0, 0, 0, 0
0, 0, 1, 0, 0, 0, 0, 0, 0, 0, 1, 1, 1, 0, 1, 0, 3, 4, 3, 5, 3, 2, 3, 4, 2, 2, 2, 1, 0, 3, 1, 0, 2, 1, 2, 1, 3, 0, 0, 1, 0, 2, 1, 1, 0, 2, 0, 0, 0, 0, 0, 0, 0, 0, 0, 0, 0, 0, 0, 0, 0, 0, 0, 0, 0, 0, 0, 0, 0, 0, 0, 0, 0, 0, 0, 0, 0, 0, 0, 0, 0, 0, 0, 0, 0, 0, 0, 0, 0, 0, 0, 0, 0, 0, 0, 0, 0, 0, 0, 0, 0, 0, 0, 0, 0, 0
0, 0, 2, 0, 0, 0, 0, 0, 0, 0, 0, 1, 0, 1, 2, 0, 1, 2, 1, 1, 2, 5, 3, 6, 4, 2, 0, 5, 3, 1, 6, 3, 2, 2, 1, 4, 1, 1, 1, 1, 3, 1, 1, 1, 0, 0, 0, 0, 0, 0, 0, 0, 0, 0, 0, 0, 0, 0, 0, 0, 0, 0, 0, 0, 0, 0, 0, 0, 0, 0, 0, 0, 0, 0, 0, 0, 0, 0, 0, 0, 0, 0, 0, 0, 0, 0, 0, 0, 0, 0, 0, 0, 0, 0, 0, 0, 0, 0, 0, 0, 0, 0, 0, 0, 0, 0
0, 0, 3, 1, 0, 0, 0, 0, 0, 1, 0, 0, 2, 0, 1, 5, 0, 1, 3, 2, 0, 3, 1, 1, 6, 3, 2, 3, 4, 2, 2, 2, 2, 0, 4, 0, 2, 4, 1, 1, 1, 0, 2, 1, 0, 0, 0, 0, 0, 0, 0, 0, 0, 0, 0, 0, 0, 0, 0, 0, 0, 0, 0, 0, 0, 0, 0, 0, 0, 0, 0, 0, 0, 0, 0, 0, 0, 0, 0, 0, 0, 0, 0, 0, 0, 0, 0, 0, 0, 0, 0, 0, 0, 0, 0, 0, 0, 0, 0, 0, 0, 0, 0, 0, 0, 0
0, 0, 4, 2, 0, 0, 0, 0, 0, 0, 0, 4, 2, 1, 1, 0, 1, 0, 4, 4, 7, 2, 4, 2, 1, 0, 1, 3, 0, 0, 2, 5, 2, 0, 1, 1, 0, 5, 0, 2, 1, 2, 1, 0, 1, 0, 0, 0, 0, 0, 0, 0, 0, 0, 0, 0, 0, 0, 0, 0, 0, 0, 0, 0, 0, 0, 0, 0, 0, 0, 0, 0, 0, 0, 0, 0, 0, 0, 0, 0, 0, 0, 0, 0, 0, 0, 0, 0, 0, 0, 0, 0, 0, 0, 0, 0, 0, 0, 0, 0, 0, 0, 0, 0, 0, 0
0, 0, 5, 0, 4, 6, 3, 13, 17, 20, 52, 50, 39, 50, 96, 95, 105, 90, 78, 98, 140, 97, 103, 105, 89, 107, 87, 88, 84, 99, 85, 70, 59, 74, 60, 53, 46, 54, 56, 32, 39, 31, 33, 18, 22, 8, 2, 0, 0, 0, 0, 0, 0, 0, 0, 0, 0, 0, 0, 0, 0, 0, 0, 0, 0, 0, 0, 0, 0, 0, 0, 0, 0, 0, 0, 0, 0, 0, 0, 0, 0, 0, 0, 0, 0, 0, 0, 0, 0, 0, 0, 0, 0, 0, 0, 0, 0, 0, 0, 0, 0, 0, 0, 0, 0, 0
0, 0, 6, 2, 6, 11, 9, 17, 39, 50, 115, 76, 111, 139, 134, 186, 196, 205, 217, 245, 238, 229, 262, 245, 242, 240, 226, 242, 228, 214, 198, 190, 151, 191, 182, 154, 140, 137, 114, 86, 67, 84, 53, 61, 42, 24, 1, 0, 0, 0, 0, 0, 0, 0, 0, 0, 0, 0, 0, 0, 0, 0, 0, 0, 0, 0, 0, 0, 0, 0, 0, 0, 0, 0, 0, 0, 0, 0, 0, 0, 0, 0, 0, 0, 0, 0, 0, 0, 0, 0, 0, 0, 0, 0, 0, 0, 0, 0, 0, 0, 0, 0, 0, 0, 0, 0
0, 0, 7, 5, 5, 9, 11, 19, 41, 50, 128, 90, 122, 156, 188, 179, 204, 181, 244, 239, 239, 210, 277, 252, 226, 245, 214, 235, 218, 215, 188, 197, 203, 167, 153, 147, 143, 127, 95, 108, 75, 73, 61, 44, 55, 15, 2, 0, 0, 0, 0, 0, 0, 0, 0, 0, 0, 0, 0, 0, 0, 0, 0, 0, 0, 0, 0, 0, 0, 0, 0, 0, 0, 0, 0, 0, 0, 0, 0, 0, 0, 0, 0, 0, 0, 0, 0, 0, 0, 0, 0, 0, 0, 0, 0, 0, 0, 0, 0, 0, 0, 0, 0, 0, 0, 0
0, 0, 8, 7, 5, 10, 25, 25, 38, 57, 124, 118, 110, 127, 174, 188, 210, 204, 221, 261, 274, 232, 288, 239, 243, 237, 204, 223, 200, 215, 207, 201, 194, 163, 153, 156, 147, 146, 104, 99, 90, 61, 68, 47, 38, 19, 2, 0, 0, 0, 0, 0, 0, 0, 0, 0, 0, 0, 0, 0, 0, 0, 0, 0, 0, 0, 0, 0, 0, 0, 0, 0, 0, 0, 0, 0, 0, 0, 0, 0, 0, 0, 0, 0, 0, 0, 0, 0, 0, 0, 0, 0, 0, 0, 0, 0, 0, 0, 0, 0, 0, 0, 0, 0, 0, 0
0, 0, 9, 0, 5, 6, 14, 28, 41, 65, 141, 114, 122, 157, 148, 195, 194, 242, 223, 213, 245, 254, 220, 259, 220, 254, 230, 247, 206, 204, 224, 205, 191, 188, 153, 143, 144, 139, 104, 104, 85, 69, 70, 63, 42, 25, 1, 0, 0, 0, 0, 0, 0, 0, 0, 0, 0, 0, 0, 0, 0, 0, 0, 0, 0, 0, 0, 0, 0, 0, 0, 0, 0, 0, 0, 0, 0, 0, 0, 0, 0, 0, 0, 0, 0, 0, 0, 0, 0, 0, 0, 0, 0, 0, 0, 0, 0, 0, 0, 0, 0, 0, 0, 0, 0, 0
0, 0, 10, 3, 3, 9, 7, 26, 38, 52, 138, 108, 109, 160, 179, 202, 208, 170, 207, 225, 251, 264, 262, 211, 222, 233, 201, 206, 223, 211, 211, 196, 159, 152, 150, 142, 128, 118, 129, 110, 100, 79, 67, 50, 53, 18, 0, 0, 0, 0, 0, 0, 0, 0, 0, 0, 0, 0, 0, 0, 0, 0, 0, 0, 0, 0, 0, 0, 0, 0, 0, 0, 0, 0, 0, 0, 0, 0, 0, 0, 0, 0, 0, 0, 0, 0, 0, 0, 0, 0, 0, 0, 0, 0, 0, 0, 0, 0, 0, 0, 0, 0, 0, 0, 0, 0
0, 0, 11, 0, 4, 8, 17, 21, 35, 58, 130, 93, 118, 154, 189, 212, 216, 247, 253, 214, 259, 255, 243, 247, 225, 225, 199, 206, 216, 225, 174, 211, 154, 152, 167, 144, 129, 104, 92, 104, 97, 99, 80, 65, 48, 20, 2, 0, 0, 0, 0, 0, 0, 0, 0, 0, 0, 0, 0, 0, 0, 0, 0, 0, 0, 0, 0, 0, 0, 0, 0, 0, 0, 0, 0, 0, 0, 0, 0, 0, 0, 0, 0, 0, 0, 0, 0, 0, 0, 0, 0, 0, 0, 0, 0, 0, 0, 0, 0, 0, 0, 0, 0, 0, 0, 0
0, 0, 12, 3, 4, 13, 10, 23, 49, 66, 135, 95, 146, 143, 205, 206, 192, 237, 252, 240, 233, 259, 246, 277, 254, 273, 245, 239, 227, 224, 195, 199, 157, 201, 174, 136, 142, 149, 112, 102, 81, 75, 61, 61, 39, 24, 1, 0, 0, 0, 0, 0, 0, 0, 0, 0, 0, 0, 0, 0, 0, 0, 0, 0, 0, 0, 0, 0, 0, 0, 0, 0, 0, 0, 0, 0, 0, 0, 0, 0, 0, 0, 0, 0, 0, 0, 0, 0, 0, 0, 0, 0, 0, 0, 0, 0, 0, 0, 0, 0, 0, 0, 0, 0, 0, 0
0, 0, 13, 2, 5, 6, 17, 22, 37, 58, 131, 104, 141, 138, 194, 195, 232, 196, 234, 239, 235, 255, 222, 235, 285, 232, 242, 232, 230, 211, 192, 212, 157, 160, 159, 172, 126, 117, 106, 91, 77, 89, 72, 52, 35, 20, 1, 0, 0, 0, 0, 0, 0, 0, 0, 0, 0, 0, 0, 0, 0, 0, 0, 0, 0, 0, 0, 0, 0, 0, 0, 0, 0, 0, 0, 0, 0, 0, 0, 0, 0, 0, 0, 0, 0, 0, 0, 0, 0, 0, 0, 0, 0, 0, 0, 0, 0, 0, 0, 0, 0, 0, 0, 0, 0, 0
0, 0, 14, 5, 1, 8, 15, 19, 40, 68, 111, 88, 122, 144, 144, 198, 194, 208, 226, 228, 240, 237, 252, 276, 232, 247, 221, 209, 218, 218, 197, 178, 151, 150, 170, 154, 144, 114, 122, 93, 87, 74, 80, 65, 41, 27, 0, 0, 0, 0, 0, 0, 0, 0, 0, 0, 0, 0, 0, 0, 0, 0, 0, 0, 0, 0, 0, 0, 0, 0, 0, 0, 0, 0, 0, 0, 0, 0, 0, 0, 0, 0, 0, 0, 0, 0, 0, 0, 0, 0, 0, 0, 0, 0, 0, 0, 0, 0, 0, 0, 0, 0, 0, 0, 0, 0
0, 0, 15, 3, 4, 5, 15, 30, 33, 70, 136, 101, 121, 153, 193, 193, 217, 207, 202, 228, 244, 248, 237, 225, 234, 256, 238, 219, 224, 209, 199, 178, 152, 193, 157, 136, 137, 141, 97, 74, 82, 88, 71, 48, 40, 19, 0, 0, 0, 0, 0, 0, 0, 0, 0, 0, 0, 0, 0, 0, 0, 0, 0, 0, 0, 0, 0, 0, 0, 0, 0, 0, 0, 0, 0, 0, 0, 0, 0, 0, 0, 0, 0, 0, 0, 0, 0, 0, 0, 0, 0, 0, 0, 0, 0, 0, 0, 0, 0, 0, 0, 0, 0, 0, 0, 0
0, 0, 16, 6, 2, 4, 14, 19, 37, 59, 93, 96, 132, 148, 163, 202, 208, 194, 206, 239, 236, 227, 242, 238, 276, 219, 231, 212, 214, 212, 189, 188, 170, 173, 154, 115, 126, 115, 111, 92, 89, 89, 70, 60, 47, 18, 3, 0, 0, 0, 0, 0, 0, 0, 0, 0, 0, 0, 0, 0, 0, 0, 0, 0, 0, 0, 0, 0, 0, 0, 0, 0, 0, 0, 0, 0, 0, 0, 0, 0, 0, 0, 0, 0, 0, 0, 0, 0, 0, 0, 0, 0, 0, 0, 0, 0, 0, 0, 0, 0, 0, 0, 0, 0, 0, 0
0, 0, 17, 3, 6, 6, 16, 25, 30, 71, 123, 84, 109, 156, 168, 213, 199, 211, 217, 244, 234, 250, 283, 208, 258, 251, 236, 217, 216, 186, 152, 177, 155, 184, 153, 141, 141, 127, 109, 112, 74, 88, 72, 60, 29, 14, 2, 0, 0, 0, 0, 0, 0, 0, 0, 0, 0, 0, 0, 0, 0, 0, 0, 0, 0, 0, 0, 0, 0, 0, 0, 0, 0, 0, 0, 0, 0, 0, 0, 0, 0, 0, 0, 0, 0, 0, 0, 0, 0, 0, 0, 0, 0, 0, 0, 0, 0, 0, 0, 0, 0, 0, 0, 0, 0, 0
0, 0, 18, 2, 5, 10, 15, 30, 36, 49, 128, 99, 128, 140, 165, 203, 194, 201, 220, 225, 260, 216, 232, 240, 206, 270, 251, 276, 209, 234, 212, 190, 170, 167, 173, 114, 141, 132, 139, 119, 103, 85, 60, 54, 43, 20, 0, 0, 0, 0, 0, 0, 0, 0, 0, 0, 0, 0, 0, 0, 0, 0, 0, 0, 0, 0, 0, 0, 0, 0, 0, 0, 0, 0, 0, 0, 0, 0, 0, 0, 0, 0, 0, 0, 0, 0, 0, 0, 0, 0, 0, 0, 0, 0, 0, 0, 0, 0, 0, 0, 0, 0, 0, 0, 0, 0
0, 0, 19, 0, 2, 10, 15, 21, 26, 51, 121, 114, 112, 141, 175, 230, 181, 224, 226, 229, 232, 237, 224, 260, 256, 261, 234, 235, 206, 188, 173, 196, 169, 169, 147, 149, 129, 122, 115, 113, 108, 72, 63, 34, 38, 23, 2, 0, 0, 0, 0, 0, 0, 0, 0, 0, 0, 0, 0, 0, 0, 0, 0, 0, 0, 0, 0, 0, 0, 0, 0, 0, 0, 0, 0, 0, 0, 0, 0, 0, 0, 0, 0, 0, 0, 0, 0, 0, 0, 0, 0, 0, 0, 0, 0, 0, 0, 0, 0, 0, 0, 0, 0, 0, 0, 0
0, 0, 20, 7, 4, 4, 13, 18, 31, 52, 103, 88, 113, 160, 153, 207, 216, 209, 233, 235, 243, 257, 247, 227, 256, 240, 241, 238, 234, 215, 195, 184, 183, 169, 177, 136, 131, 114, 120, 90, 111, 106, 76, 59, 38, 21, 2, 0, 0, 0, 0, 0, 0, 0, 0, 0, 0, 0, 0, 0, 0, 0, 0, 0, 0, 0, 0, 0, 0, 0, 0, 0, 0, 0, 0, 0, 0, 0, 0, 0, 0, 0, 0, 0, 0, 0, 0, 0, 0, 0, 0, 0, 0, 0, 0, 0, 0, 0, 0, 0, 0, 0, 0, 0, 0, 0
0, 0, 21, 0, 3, 4, 20, 25, 40, 58, 133, 101, 113, 164, 183, 188, 193, 198, 199, 247, 242, 281, 214, 256, 219, 236, 242, 220, 224, 201, 185, 220, 192, 174, 156, 146, 140, 124, 99, 99, 90, 82, 78, 56, 30, 26, 0, 0, 0, 0, 0, 0, 0, 0, 0, 0, 0, 0, 0, 0, 0, 0, 0, 0, 0, 0, 0, 0, 0, 0, 0, 0, 0, 0, 0, 0, 0, 0, 0, 0, 0, 0, 0, 0, 0, 0, 0, 0, 0, 0, 0, 0, 0, 0, 0, 0, 0, 0, 0, 0, 0, 0, 0, 0, 0, 0
0, 0, 22, 2, 2, 7, 18, 30, 36, 47, 120, 88, 113, 126, 171, 169, 219, 223, 213, 234, 263, 285, 288, 234, 239, 218, 244, 225, 210, 179, 212, 173, 195, 171, 155, 136, 144, 103, 129, 114, 88, 84, 51, 69, 33, 23, 1, 0, 0, 0, 0, 0, 0, 0, 0, 0, 0, 0, 0, 0, 0, 0, 0, 0, 0, 0, 0, 0, 0, 0, 0, 0, 0, 0, 0, 0, 0, 0, 0, 0, 0, 0, 0, 0, 0, 0, 0, 0, 0, 0, 0, 0, 0, 0, 0, 0, 0, 0, 0, 0, 0, 0, 0, 0, 0, 0
0, 0, 23, 3, 5, 5, 13, 26, 36, 51, 106, 90, 116, 141, 172, 183, 188, 205, 243, 240, 220, 247, 256, 273, 244, 250, 224, 247, 239, 204, 211, 148, 160, 210, 164, 125, 143, 134, 107, 104, 92, 83, 67, 49, 45, 26, 3, 0, 0, 0, 0, 0, 0, 0, 0, 0, 0, 0, 0, 0, 0, 0, 0, 0, 0, 0, 0, 0, 0, 0, 0, 0, 0, 0, 0, 0, 0, 0, 0, 0, 0, 0, 0, 0, 0, 0, 0, 0, 0, 0, 0, 0, 0, 0, 0, 0, 0, 0, 0, 0, 0, 0, 0, 0, 0, 0
0, 0, 24, 0, 0, 7, 16, 19, 41, 41, 114, 81, 114, 132, 181, 183, 191, 217, 229, 209, 205, 204, 222, 228, 246, 232, 240, 236, 207, 238, 191, 199, 182, 172, 136, 144, 144, 140, 121, 104, 90, 85, 65, 55, 31, 18, 2, 0, 0, 0, 0, 0, 0, 0, 0, 0, 0, 0, 0, 0, 0, 0, 0, 0, 0, 0, 0, 0, 0, 0, 0, 0, 0, 0, 0, 0, 0, 0, 0, 0, 0, 0, 0, 0, 0, 0, 0, 0, 0, 0, 0, 0, 0, 0, 0, 0, 0, 0, 0, 0, 0, 0, 0, 0, 0, 0
0, 0, 25, 2, 2, 13, 14, 21, 40, 74, 123, 98, 120, 161, 151, 200, 205, 199, 229, 235, 255, 243, 256, 249, 234, 214, 230, 218, 215, 183, 187, 173, 175, 203, 127, 167, 143, 125, 102, 109, 64, 64, 71, 53, 41, 29, 1, 0, 0, 0, 0, 0, 0, 0, 0, 0, 0, 0, 0, 0, 0, 0, 0, 0, 0, 0, 0, 0, 0, 0, 0, 0, 0, 0, 0, 0, 0, 0, 0, 0, 0, 0, 0, 0, 0, 0, 0, 0, 0, 0, 0, 0, 0, 0, 0, 0, 0, 0, 0, 0, 0, 0, 0, 0, 0, 0
0, 0, 26, 1, 6, 6, 18, 30, 28, 43, 114, 86, 116, 134, 178, 181, 187, 205, 226, 225, 233, 254, 239, 250, 251, 242, 260, 209, 220, 203, 203, 181, 162, 181, 136, 122, 114, 129, 123, 87, 89, 72, 75, 53, 34, 24, 2, 0, 0, 0, 0, 0, 0, 0, 0, 0, 0, 0, 0, 0, 0, 0, 0, 0, 0, 0, 0, 0, 0, 0, 0, 0, 0, 0, 0, 0, 0, 0, 0, 0, 0, 0, 0, 0, 0, 0, 0, 0, 0, 0, 0, 0, 0, 0, 0, 0, 0, 0, 0, 0, 0, 0, 0, 0, 0, 0
0, 0, 27, 0, 4, 6, 17, 30, 30, 55, 130, 85, 107, 135, 163, 194, 219, 234, 220, 250, 239, 260, 236, 258, 255, 238, 228, 240, 197, 253, 178, 161, 195, 164, 165, 160, 142, 138, 105, 131, 88, 78, 76, 68, 50, 18, 0, 0, 0, 0, 0, 0, 0, 0, 0, 0, 0, 0, 0, 0, 0, 0, 0, 0, 0, 0, 0, 0, 0, 0, 0, 0, 0, 0, 0, 0, 0, 0, 0, 0, 0, 0, 0, 0, 0, 0, 0, 0, 0, 0, 0, 0, 0, 0, 0, 0, 0, 0, 0, 0, 0, 0, 0, 0, 0, 0
0, 0, 28, 2, 3, 13, 17, 13, 43, 61, 130, 102, 116, 166, 177, 196, 233, 232, 261, 227, 257, 259, 264, 271, 233, 241, 247, 236, 213, 226, 169, 207, 187, 179, 165, 150, 132, 140, 93, 109, 92, 79, 77, 48, 50, 18, 3, 0, 0, 0, 0, 0, 0, 0, 0, 0, 0, 0, 0, 0, 0, 0, 0, 0, 0, 0, 0, 0, 0, 0, 0, 0, 0, 0, 0, 0, 0, 0, 0, 0, 0, 0, 0, 0, 0, 0, 0, 0, 0, 0, 0, 0, 0, 0, 0, 0, 0, 0, 0, 0, 0, 0, 0, 0, 0, 0
0, 0, 29, 12, 4, 5, 15, 29, 35, 62, 135, 70, 114, 151, 196, 211, 198, 188, 241, 237, 249, 280, 252, 236, 242, 250, 223, 230, 186, 223, 199, 194, 173, 172, 162, 155, 146, 143, 117, 112, 77, 79, 78, 48, 43, 25, 1, 0, 0, 0, 0, 0, 0, 0, 0, 0, 0, 0, 0, 0, 0, 0, 0, 0, 0, 0, 0, 0, 0, 0, 0, 0, 0, 0, 0, 0, 0, 0, 0, 0, 0, 0, 0, 0, 0, 0, 0, 0, 0, 0, 0, 0, 0, 0, 0, 0, 0, 0, 0, 0, 0, 0, 0, 0, 0, 0
0, 0, 30, 1, 4, 7, 12, 26, 49, 54, 120, 103, 134, 150, 204, 201, 193, 207, 214, 240, 257, 270, 274, 256, 266, 248, 244, 213, 205, 225, 212, 187, 188, 162, 174, 153, 128, 123, 106, 96, 99, 77, 62, 58, 46, 26, 0, 0, 0, 0, 0, 0, 0, 0, 0, 0, 0, 0, 0, 0, 0, 0, 0, 0, 0, 0, 0, 0, 0, 0, 0, 0, 0, 0, 0, 0, 0, 0, 0, 0, 0, 0, 0, 0, 0, 0, 0, 0, 0, 0, 0, 0, 0, 0, 0, 0, 0, 0, 0, 0, 0, 0, 0, 0, 0, 0
0, 0, 31, 1, 5, 8, 14, 24, 38, 55, 138, 87, 123, 163, 168, 190, 198, 222, 220, 239, 247, 279, 260, 233, 263, 239, 245, 230, 176, 207, 187, 185, 186, 175, 154, 140, 130, 111, 96, 110, 85, 72, 60, 53, 40, 15, 3, 0, 0, 0, 0, 0, 0, 0, 0, 0, 0, 0, 0, 0, 0, 0, 0, 0, 0, 0, 0, 0, 0, 0, 0, 0, 0, 0, 0, 0, 0, 0, 0, 0, 0, 0, 0, 0, 0, 0, 0, 0, 0, 0, 0, 0, 0, 0, 0, 0, 0, 0, 0, 0, 0, 0, 0, 0, 0, 0
0, 0, 32, 3, 2, 8, 14, 27, 54, 65, 115, 104, 101, 142, 165, 209, 186, 197, 227, 222, 276, 260, 254, 251, 220, 255, 229, 227, 215, 223, 223, 190, 190, 160, 140, 165, 134, 125, 105, 85, 89, 79, 76, 60, 32, 22, 3, 0, 0, 0, 0, 0, 0, 0, 0, 0, 0, 0, 0, 0, 0, 0, 0, 0, 0, 0, 0, 0, 0, 0, 0, 0, 0, 0, 0, 0, 0, 0, 0, 0, 0, 0, 0, 0, 0, 0, 0, 0, 0, 0, 0, 0, 0, 0, 0, 0, 0, 0, 0, 0, 0, 0, 0, 0, 0, 0
0, 0, 33, 4, 2, 2, 18, 22, 35, 67, 109, 99, 124, 129, 181, 207, 190, 224, 223, 243, 259, 248, 257, 283, 235, 243, 268, 216, 216, 222, 184, 173, 196, 150, 154, 133, 148, 114, 119, 106, 90, 77, 69, 49, 46, 17, 0, 0, 0, 0, 0, 0, 0, 0, 0, 0, 0, 0, 0, 0, 0, 0, 0, 0, 0, 0, 0, 0, 0, 0, 0, 0, 0, 0, 0, 0, 0, 0, 0, 0, 0, 0, 0, 0, 0, 0, 0, 0, 0, 0, 0, 0, 0, 0, 0, 0, 0, 0, 0, 0, 0, 0, 0, 0, 0, 0
0, 0, 34, 2, 4, 6, 15, 25, 45, 47, 122, 97, 116, 161, 173, 225, 219, 203, 231, 234, 248, 240, 251, 241, 258, 237, 217, 212, 219, 215, 180, 213, 165, 180, 151, 153, 131, 134, 106, 103, 90, 79, 67, 51, 32, 23, 0, 0, 0, 0, 0, 0, 0, 0, 0, 0, 0, 0, 0, 0, 0, 0, 0, 0, 0, 0, 0, 0, 0, 0, 0, 0, 0, 0, 0, 0, 0, 0, 0, 0, 0, 0, 0, 0, 0, 0, 0, 0, 0, 0, 0, 0, 0, 0, 0, 0, 0, 0, 0, 0, 0, 0, 0, 0, 0, 0
0, 0, 35, 3, 3, 9, 14, 27, 46, 51, 118, 86, 109, 150, 138, 202, 211, 209, 216, 268, 217, 229, 244, 253, 245, 244, 253, 202, 211, 207, 198, 212, 192, 171, 159, 157, 113, 127, 110, 112, 87, 80, 79, 50, 50, 19, 2, 0, 0, 0, 0, 0, 0, 0, 0, 0, 0, 0, 0, 0, 0, 0, 0, 0, 0, 0, 0, 0, 0, 0, 0, 0, 0, 0, 0, 0, 0, 0, 0, 0, 0, 0, 0, 0, 0, 0, 0, 0, 0, 0, 0, 0, 0, 0, 0, 0, 0, 0, 0, 0, 0, 0, 0, 0, 0, 0
0, 0, 36, 0, 2, 9, 14, 28, 42, 53, 119, 107, 113, 130, 166, 224, 195, 219, 233, 228, 240, 230, 263, 238, 216, 237, 226, 202, 200, 210, 212, 186, 163, 160, 151, 127, 140, 108, 119, 109, 94, 78, 67, 56, 50, 21, 0, 0, 0, 0, 0, 0, 0, 0, 0, 0, 0, 0, 0, 0, 0, 0, 0, 0, 0, 0, 0, 0, 0, 0, 0, 0, 0, 0, 0, 0, 0, 0, 0, 0, 0, 0, 0, 0, 0, 0, 0, 0, 0, 0, 0, 0, 0, 0, 0, 0, 0, 0, 0, 0, 0, 0, 0, 0, 0, 0
0, 0, 37, 0, 2, 9, 19, 28, 39, 54, 123, 81, 120, 146, 189, 187, 225, 211, 249, 252, 248, 221, 263, 253, 259, 252, 239, 218, 238, 209, 187, 196, 195, 182, 131, 166, 158, 129, 118, 109, 88, 75, 60, 48, 33, 32, 1, 0, 0, 0, 0, 0, 0, 0, 0, 0, 0, 0, 0, 0, 0, 0, 0, 0, 0, 0, 0, 0, 0, 0, 0, 0, 0, 0, 0, 0, 0, 0, 0, 0, 0, 0, 0, 0, 0, 0, 0, 0, 0, 0, 0, 0, 0, 0, 0, 0, 0, 0, 0, 0, 0, 0, 0, 0, 0, 0
0, 0, 38, 3, 4, 7, 9, 22, 56, 46, 103, 97, 123, 156, 170, 207, 183, 216, 252, 253, 252, 251, 282, 262, 254, 243, 202, 231, 242, 200, 188, 172, 184, 173, 150, 178, 143, 118, 112, 90, 90, 81, 69, 56, 36, 25, 3, 0, 0, 0, 0, 0, 0, 0, 0, 0, 0, 0, 0, 0, 0, 0, 0, 0, 0, 0, 0, 0, 0, 0, 0, 0, 0, 0, 0, 0, 0, 0, 0, 0, 0, 0, 0, 0, 0, 0, 0, 0, 0, 0, 0, 0, 0, 0, 0, 0, 0, 0, 0, 0, 0, 0, 0, 0, 0, 0
0, 0, 39, 5, 7, 5, 9, 24, 37, 68, 120, 89, 119, 144, 162, 209, 204, 208, 210, 272, 268, 260, 275, 219, 282, 221, 220, 203, 216, 213, 189, 178, 172, 173, 152, 164, 131, 126, 112, 97, 89, 81, 69, 57, 28, 19, 0, 0, 0, 0, 0, 0, 0, 0, 0, 0, 0, 0, 0, 0, 0, 0, 0, 0, 0, 0, 0, 0, 0, 0, 0, 0, 0, 0, 0, 0, 0, 0, 0, 0, 0, 0, 0, 0, 0, 0, 0, 0, 0, 0, 0, 0, 0, 0, 0, 0, 0, 0, 0, 0, 0, 0, 0, 0, 0, 0
0, 0, 40, 1, 3, 5, 17, 30, 46, 55, 126, 108, 110, 143, 153, 200, 212, 221, 232, 216, 220, 279, 279, 277, 264, 245, 226, 202, 214, 224, 200, 192, 166, 133, 162, 140, 143, 117, 104, 95, 88, 74, 68, 50, 40, 20, 1, 0, 0, 0, 0, 0, 0, 0, 0, 0, 0, 0, 0, 0, 0, 0, 0, 0, 0, 0, 0, 0, 0, 0, 0, 0, 0, 0, 0, 0, 0, 0, 0, 0, 0, 0, 0, 0, 0, 0, 0, 0, 0, 0, 0, 0, 0, 0, 0, 0, 0, 0, 0, 0, 0, 0, 0, 0, 0, 0
0, 0, 41, 0, 2, 8, 16, 13, 48, 48, 90, 83, 98, 117, 175, 171, 183, 230, 209, 204, 238, 240, 219, 216, 234, 222, 215, 216, 193, 182, 188, 179, 173, 171, 168, 140, 123, 108, 108, 99, 84, 73, 60, 47, 36, 16, 1, 0, 0, 0, 0, 0, 0, 0, 0, 0, 0, 0, 0, 0, 0, 0, 0, 0, 0, 0, 0, 0, 0, 0, 0, 0, 0, 0, 0, 0, 0, 0, 0, 0, 0, 0, 0, 0, 0, 0, 0, 0, 0, 0, 0, 0, 0, 0, 0, 0, 0, 0, 0, 0, 0, 0, 0, 0, 0, 0
0, 0, 42, 2, 5, 4, 14, 19, 23, 45, 79, 87, 80, 111, 112, 164, 140, 166, 183, 202, 181, 193, 195, 193, 187, 181, 180, 174, 142, 157, 154, 158, 143, 163, 120, 127, 108, 91, 94, 71, 71, 70, 55, 32, 30, 21, 1, 0, 0, 0, 0, 0, 0, 0, 0, 0, 0, 0, 0, 0, 0, 0, 0, 0, 0, 0, 0, 0, 0, 0, 0, 0, 0, 0, 0, 0, 0, 0, 0, 0, 0, 0, 0, 0, 0, 0, 0, 0, 0, 0, 0, 0, 0, 0, 0, 0, 0, 0, 0, 0, 0, 0, 0, 0, 0, 0
0, 0, 43, 0, 0, 4, 5, 14, 17, 22, 68, 46, 72, 87, 97, 114, 110, 132, 119, 121, 156, 137, 168, 164, 159, 166, 157, 167, 119, 153, 124, 96, 101, 112, 104, 89, 105, 109, 86, 72, 52, 58, 51, 31, 30, 13, 0, 0, 0, 0, 0, 0, 0, 0, 0, 0, 0, 0, 0, 0, 0, 0, 0, 0, 0, 0, 0, 0, 0, 0, 0, 0, 0, 0, 0, 0, 0, 0, 0, 0, 0, 0, 0, 0, 0, 0, 0, 0, 0, 0, 0, 0, 0, 0, 0, 0, 0, 0, 0, 0, 0, 0, 0, 0, 0, 0
0, 0, 44, 2, 2, 3, 6, 7, 11, 21, 55, 28, 42, 57, 53, 78, 97, 103, 121, 112, 105, 133, 90, 127, 113, 137, 118, 125, 107, 114, 108, 127, 103, 108, 94, 80, 91, 82, 61, 57, 47, 51, 40, 40, 23, 17, 1, 0, 0, 0, 0, 0, 0, 0, 0, 0, 0, 0, 0, 0, 0, 0, 0, 0, 0, 0, 0, 0, 0, 0, 0, 0, 0, 0, 0, 0, 0, 0, 0, 0, 0, 0, 0, 0, 0, 0, 0, 0, 0, 0, 0, 0, 0, 0, 0, 0, 0, 0, 0, 0, 0, 0, 0, 0, 0, 0
0, 0, 45, 0, 1, 0, 4, 6, 7, 8, 34, 29, 36, 33, 57, 70, 57, 74, 99, 78, 82, 91, 101, 116, 103, 92, 95, 111, 105, 86, 95, 99, 75, 70, 88, 83, 71, 54, 53, 54, 32, 48, 30, 36, 16, 6, 2, 0, 0, 0, 0, 0, 0, 0, 0, 0, 0, 0, 0, 0, 0, 0, 0, 0, 0, 0, 0, 0, 0, 0, 0, 0, 0, 0, 0, 0, 0, 0, 0, 0, 0, 0, 0, 0, 0, 0, 0, 0, 0, 0, 0, 0, 0, 0, 0, 0, 0, 0, 0, 0, 0, 0, 0, 0, 0, 0
0, 0, 46, 1, 0, 0, 0, 6, 7, 8, 22, 21, 14, 32, 29, 37, 47, 57, 60, 44, 71, 76, 69, 63, 64, 67, 86, 67, 73, 88, 75, 49, 75, 67, 50, 51, 58, 37, 37, 35, 31, 30, 20, 26, 13, 8, 1, 0, 0, 0, 0, 0, 0, 0, 0, 0, 0, 0, 0, 0, 0, 0, 0, 0, 0, 0, 0, 0, 0, 0, 0, 0, 0, 0, 0, 0, 0, 0, 0, 0, 0, 0, 0, 0, 0, 0, 0, 0, 0, 0, 0, 0, 0, 0, 0, 0, 0, 0, 0, 0, 0, 0, 0, 0, 0, 0
0, 0, 47, 0, 0, 3, 1, 1, 4, 5, 16, 10, 13, 13, 39, 43, 31, 42, 51, 45, 49, 62, 64, 60, 46, 71, 59, 75, 61, 65, 81, 54, 55, 41, 48, 46, 41, 59, 34, 35, 35, 24, 24, 16, 11, 7, 1, 0, 0, 0, 0, 0, 0, 0, 0, 0, 0, 0, 0, 0, 0, 0, 0, 0, 0, 0, 0, 0, 0, 0, 0, 0, 0, 0, 0, 0, 0, 0, 0, 0, 0, 0, 0, 0, 0, 0, 0, 0, 0, 0, 0, 0, 0, 0, 0, 0, 0, 0, 0, 0, 0, 0, 0, 0, 0, 0
0, 0, 48, 0, 0, 1, 2, 1, 1, 4, 9, 10, 8, 9, 17, 25, 23, 29, 37, 48, 36, 56, 46, 58, 59, 45, 53, 51, 55, 63, 50, 53, 43, 33, 44, 54, 37, 40, 32, 35, 26, 22, 24, 21, 8, 7, 0, 0, 0, 0, 0, 0, 0, 0, 0, 0, 0, 0, 0, 0, 0, 0, 0, 0, 0, 0, 0, 0, 0, 0, 0, 0, 0, 0, 0, 0, 0, 0, 0, 0, 0, 0, 0, 0, 0, 0, 0, 0, 0, 0, 0, 0, 0, 0, 0, 0, 0, 0, 0, 0, 0, 0, 0, 0, 0, 0
0, 0, 49, 0, 0, 0, 0, 2, 2, 3, 8, 5, 6, 10, 12, 27, 14, 26, 19, 42, 35, 43, 48, 46, 41, 44, 38, 43, 56, 36, 58, 41, 43, 41, 44, 40, 40, 41, 38, 31, 29, 25, 22, 9, 12, 3, 0, 0, 0, 0, 0, 0, 0, 0, 0, 0, 0, 0, 0, 0, 0, 0, 0, 0, 0, 0, 0, 0, 0, 0, 0, 0, 0, 0, 0, 0, 0, 0, 0, 0, 0, 0, 0, 0, 0, 0, 0, 0, 0, 0, 0, 0, 0, 0, 0, 0, 0, 0, 0, 0, 0, 0, 0, 0, 0, 0
0, 0, 50, 0, 2, 0, 0, 0, 0, 0, 7, 2, 9, 8, 14, 20, 18, 27, 27, 34, 25, 31, 43, 50, 48, 31, 43, 37, 45, 44, 54, 47, 31, 42, 52, 39, 29, 44, 26, 39, 24, 14, 17, 16, 10, 3, 0, 0, 0, 0, 0, 0, 0, 0, 0, 0, 0, 0, 0, 0, 0, 0, 0, 0, 0, 0, 0, 0, 0, 0, 0, 0, 0, 0, 0, 0, 0, 0, 0, 0, 0, 0, 0, 0, 0, 0, 0, 0, 0, 0, 0, 0, 0, 0, 0, 0, 0, 0, 0, 0, 0, 0, 0, 0, 0, 0
0, 0, 51, 1, 0, 0, 0, 1, 1, 3, 16, 8, 8, 12, 21, 26, 30, 34, 40, 31, 39, 47, 47, 52, 32, 53, 49, 60, 52, 59, 62, 50, 56, 46, 43, 38, 44, 36, 51, 30, 25, 23, 13, 19, 13, 5, 0, 0, 0, 0, 0, 0, 0, 0, 0, 0, 0, 0, 0, 0, 0, 0, 0, 0, 0, 0, 0, 0, 0, 0, 0, 0, 0, 0, 0, 0, 0, 0, 0, 0, 0, 0, 0, 0, 0, 0, 0, 0, 0, 0, 0, 0, 0, 0, 0, 0, 0, 0, 0, 0, 0, 0, 0, 0, 0, 0
0, 0, 52, 0, 0, 0, 2, 1, 1, 1, 13, 11, 15, 21, 31, 24, 30, 42, 31, 43, 45, 63, 53, 67, 55, 48, 62, 67, 62, 54, 70, 57, 76, 49, 37, 49, 48, 29, 34, 29, 27, 30, 23, 16, 14, 7, 1, 0, 0, 0, 0, 0, 0, 0, 0, 0, 0, 0, 0, 0, 0, 0, 0, 0, 0, 0, 0, 0, 0, 0, 0, 0, 0, 0, 0, 0, 0, 0, 0, 0, 0, 0, 0, 0, 0, 0, 0, 0, 0, 0, 0, 0, 0, 0, 0, 0, 0, 0, 0, 0, 0, 0, 0, 0, 0, 0
0, 0, 53, 0, 0, 0, 1, 4, 4, 18, 26, 17, 19, 37, 35, 47, 50, 41, 66, 70, 70, 85, 78, 74, 67, 83, 84, 84, 80, 76, 65, 80, 55, 63, 52, 50, 54, 48, 38, 32, 38, 33, 23, 27, 11, 6, 1, 0, 0, 0, 0, 0, 0, 0, 0, 0, 0, 0, 0, 0, 0, 0, 0, 0, 0, 0, 0, 0, 0, 0, 0, 0, 0, 0, 0, 0, 0, 0, 0, 0, 0, 0, 0, 0, 0, 0, 0, 0, 0, 0, 0, 0, 0, 0, 0, 0, 0, 0, 0, 0, 0, 0, 0, 0, 0, 0
0, 0, 54, 3, 2, 3, 2, 8, 10, 12, 30, 34, 38, 50, 53, 71, 74, 72, 84, 103, 95, 104, 92, 107, 102, 92, 102, 93, 80, 87, 96, 90, 78, 68, 75, 54, 55, 50, 56, 56, 54, 37, 28, 29, 24, 12, 1, 0, 0, 0, 0, 0, 0, 0, 0, 0, 0, 0, 0, 0, 0, 0, 0, 0, 0, 0, 0, 0, 0, 0, 0, 0, 0, 0, 0, 0, 0, 0, 0, 0, 0, 0, 0, 0, 0, 0, 0, 0, 0, 0, 0, 0, 0, 0, 0, 0, 0, 0, 0, 0, 0, 0, 0, 0, 0, 0
0, 0, 55, 1, 1, 1, 9, 7, 26, 20, 44, 43, 47, 76, 69, 86, 106, 88, 103, 94, 120, 114, 103, 118, 120, 141, 121, 100, 100, 128, 93, 100, 115, 96, 92, 74, 79, 63, 61, 57, 39, 45, 38, 26, 20, 4, 3, 0, 0, 0, 0, 0, 0, 0, 0, 0, 0, 0, 0, 0, 0, 0, 0, 0, 0, 0, 0, 0, 0, 0, 0, 0, 0, 0, 0, 0, 0, 0, 0, 0, 0, 0, 0, 0, 0, 0, 0, 0, 0, 0, 0, 0, 0, 0, 0, 0, 0, 0, 0, 0, 0, 0, 0, 0, 0, 0
0, 0, 56, 1, 0, 6, 9, 12, 18, 25, 64, 73, 68, 89, 103, 104, 114, 125, 162, 144, 138, 167, 140, 154, 148, 133, 143, 158, 142, 161, 119, 124, 128, 115, 105, 101, 96, 74, 73, 60, 90, 46, 51, 38, 27, 16, 0, 0, 0, 0, 0, 0, 0, 0, 0, 0, 0, 0, 0, 0, 0, 0, 0, 0, 0, 0, 0, 0, 0, 0, 0, 0, 0, 0, 0, 0, 0, 0, 0, 0, 0, 0, 0, 0, 0, 0, 0, 0, 0, 0, 0, 0, 0, 0, 0, 0, 0, 0, 0, 0, 0, 0, 0, 0, 0, 0
0, 0, 57, 1, 2, 3, 13, 20, 30, 44, 75, 66, 90, 91, 138, 132, 155, 163, 178, 174, 170, 195, 187, 194, 184, 197, 176, 166, 162, 166, 139, 156, 153, 145, 137, 126, 116, 95, 108, 76, 76, 51, 70, 42, 33, 19, 0, 0, 0, 0, 0, 0, 0, 0, 0, 0, 0, 0, 0, 0, 0, 0, 0, 0, 0, 0, 0, 0, 0, 0, 0, 0, 0, 0, 0, 0, 0, 0, 0, 0, 0, 0, 0, 0, 0, 0, 0, 0, 0, 0, 0, 0, 0, 0, 0, 0, 0, 0, 0, 0, 0, 0, 0, 0, 0, 0
0, 0, 58, 0, 3, 8, 18, 24, 28, 56, 107, 78, 105, 123, 136, 162, 193, 218, 201, 206, 209, 260, 245, 205, 249, 222, 208, 194, 197, 186, 189, 196, 192, 144, 180, 144, 123, 136, 103, 104, 90, 85, 65, 55, 27, 29, 1, 0, 0, 0, 0, 0, 0, 0, 0, 0, 0, 0, 0, 0, 0, 0, 0, 0, 0, 0, 0, 0, 0, 0, 0, 0, 0, 0, 0, 0, 0, 0, 0, 0, 0, 0, 0, 0, 0, 0, 0, 0, 0, 0, 0, 0, 0, 0, 0, 0, 0, 0, 0, 0, 0, 0, 0, 0, 0, 0
0, 0, 59, 1, 6, 6, 14, 31, 40, 70, 98, 85, 108, 144, 178, 213, 211, 202, 209, 249, 252, 271, 243, 234, 202, 241, 263, 221, 220, 207, 205, 179, 174, 212, 155, 148, 147, 119, 116, 96, 83, 77, 68, 53, 48, 19, 4, 0, 0, 0, 0, 0, 0, 0, 0, 0, 0, 0, 0, 0, 0, 0, 0, 0, 0, 0, 0, 0, 0, 0, 0, 0, 0, 0, 0, 0, 0, 0, 0, 0, 0, 0, 0, 0, 0, 0, 0, 0, 0, 0, 0, 0, 0, 0, 0, 0, 0, 0, 0, 0, 0, 0, 0, 0, 0, 0
0, 0, 60, 1, 3, 7, 13, 25, 38, 53, 110, 100, 100, 153, 174, 197, 193, 193, 250, 239, 243, 283, 274, 220, 250, 234, 243, 228, 202, 194, 206, 191, 193, 169, 147, 136, 137, 128, 104, 102, 115, 70, 75, 52, 44, 14, 1, 0, 0, 0, 0, 0, 0, 0, 0, 0, 0, 0, 0, 0, 0, 0, 0, 0, 0, 0, 0, 0, 0, 0, 0, 0, 0, 0, 0, 0, 0, 0, 0, 0, 0, 0, 0, 0, 0, 0, 0, 0, 0, 0, 0, 0, 0, 0, 0, 0, 0, 0, 0, 0, 0, 0, 0, 0, 0, 0
0, 0, 61, 3, 1, 10, 14, 25, 35, 66, 121, 74, 108, 159, 190, 198, 206, 208, 209, 252, 251, 255, 240, 256, 268, 257, 255, 231, 221, 209, 185, 163, 179, 147, 166, 136, 134, 148, 112, 106, 95, 90, 76, 59, 50, 18, 0, 0, 0, 0, 0, 0, 0, 0, 0, 0, 0, 0, 0, 0, 0, 0, 0, 0, 0, 0, 0, 0, 0, 0, 0, 0, 0, 0, 0, 0, 0, 0, 0, 0, 0, 0, 0, 0, 0, 0, 0, 0, 0, 0, 0, 0, 0, 0, 0, 0, 0, 0, 0, 0, 0, 0, 0, 0, 0, 0
0, 0, 62, 4, 4, 6, 14, 30, 38, 54, 129, 91, 135, 151, 185, 208, 189, 234, 195, 228, 253, 256, 278, 242, 272, 251, 254, 216, 204, 214, 189, 180, 204, 160, 147, 149, 128, 116, 95, 118, 85, 79, 58, 58, 52, 19, 1, 0, 0, 0, 0, 0, 0, 0, 0, 0, 0, 0, 0, 0, 0, 0, 0, 0, 0, 0, 0, 0, 0, 0, 0, 0, 0, 0, 0, 0, 0, 0, 0, 0, 0, 0, 0, 0, 0, 0, 0, 0, 0, 0, 0, 0, 0, 0, 0, 0, 0, 0, 0, 0, 0, 0, 0, 0, 0, 0
0, 0, 63, 0, 8, 10, 17, 23, 39, 55, 116, 90, 108, 156, 156, 177, 174, 210, 236, 240, 241, 240, 234, 256, 240, 254, 242, 180, 215, 245, 184, 202, 189, 160, 150, 177, 145, 143, 89, 114, 71, 81, 67, 60, 39, 17, 1, 0, 0, 0, 0, 0, 0, 0, 0, 0, 0, 0, 0, 0, 0, 0, 0, 0, 0, 0, 0, 0, 0, 0, 0, 0, 0, 0, 0, 0, 0, 0, 0, 0, 0, 0, 0, 0, 0, 0, 0, 0, 0, 0, 0, 0, 0, 0, 0, 0, 0, 0, 0, 0, 0, 0, 0, 0, 0, 0
0, 0, 64, 0, 2, 9, 11, 30, 32, 56, 121, 93, 134, 144, 156, 203, 219, 196, 229, 230, 252, 255, 229, 253, 239, 262, 211, 227, 241, 213, 193, 157, 185, 189, 154, 161, 129, 123, 119, 107, 86, 76, 83, 54, 42, 24, 2, 0, 0, 0, 0, 0, 0, 0, 0, 0, 0, 0, 0, 0, 0, 0, 0, 0, 0, 0, 0, 0, 0, 0, 0, 0, 0, 0, 0, 0, 0, 0, 0, 0, 0, 0, 0, 0, 0, 0, 0, 0, 0, 0, 0, 0, 0, 0, 0, 0, 0, 0, 0, 0, 0, 0, 0, 0, 0, 0
0, 0, 65, 0, 5, 7, 17, 21, 46, 61, 138, 101, 125, 139, 173, 199, 195, 181, 229, 245, 269, 257, 240, 243, 249, 242, 223, 261, 210, 226, 208, 195, 170, 167, 163, 153, 144, 169, 116, 115, 96, 84, 64, 55, 41, 20, 0, 0, 0, 0, 0, 0, 0, 0, 0, 0, 0, 0, 0, 0, 0, 0, 0, 0, 0, 0, 0, 0, 0, 0, 0, 0, 0, 0, 0, 0, 0, 0, 0, 0, 0, 0, 0, 0, 0, 0, 0, 0, 0, 0, 0, 0, 0, 0, 0, 0, 0, 0, 0, 0, 0, 0, 0, 0, 0, 0
0, 0, 66, 4, 5, 9, 17, 33, 43, 45, 131, 115, 93, 168, 187, 201, 168, 205, 252, 264, 245, 258, 257, 261, 242, 247, 241, 243, 229, 225, 233, 181, 168, 172, 158, 133, 160, 127, 135, 94, 85, 75, 59, 57, 47, 21, 1, 0, 0, 0, 0, 0, 0, 0, 0, 0, 0, 0, 0, 0, 0, 0, 0, 0, 0, 0, 0, 0, 0, 0, 0, 0, 0, 0, 0, 0, 0, 0, 0, 0, 0, 0, 0, 0, 0, 0, 0, 0, 0, 0, 0, 0, 0, 0, 0, 0, 0, 0, 0, 0, 0, 0, 0, 0, 0, 0
0, 0, 67, 4, 6, 3, 20, 28, 35, 59, 124, 86, 107, 133, 156, 204, 219, 225, 238, 260, 276, 238, 241, 230, 247, 262, 225, 232, 189, 204, 185, 187, 183, 169, 138, 147, 151, 131, 104, 100, 87, 81, 72, 61, 45, 16, 2, 0, 0, 0, 0, 0, 0, 0, 0, 0, 0, 0, 0, 0, 0, 0, 0, 0, 0, 0, 0, 0, 0, 0, 0, 0, 0, 0, 0, 0, 0, 0, 0, 0, 0, 0, 0, 0, 0, 0, 0, 0, 0, 0, 0, 0, 0, 0, 0, 0, 0, 0, 0, 0, 0, 0, 0, 0, 0, 0
0, 0, 68, 2, 7, 6, 14, 33, 42, 60, 125, 77, 133, 134, 154, 216, 222, 192, 204, 221, 242, 273, 230, 256, 243, 226, 211, 225, 227, 191, 205, 199, 174, 183, 177, 169, 157, 126, 112, 106, 83, 72, 49, 56, 39, 20, 0, 0, 0, 0, 0, 0, 0, 0, 0, 0, 0, 0, 0, 0, 0, 0, 0, 0, 0, 0, 0, 0, 0, 0, 0, 0, 0, 0, 0, 0, 0, 0, 0, 0, 0, 0, 0, 0, 0, 0, 0, 0, 0, 0, 0, 0, 0, 0, 0, 0, 0, 0, 0, 0, 0, 0, 0, 0, 0, 0
0, 0, 69, 4, 0, 6, 10, 25, 24, 58, 109, 90, 107, 144, 161, 201, 203, 187, 233, 234, 283, 245, 247, 211, 270, 246, 236, 229, 244, 197, 210, 184, 172, 157, 138, 135, 155, 134, 130, 122, 104, 79, 85, 67, 34, 19, 2, 0, 0, 0, 0, 0, 0, 0, 0, 0, 0, 0, 0, 0, 0, 0, 0, 0, 0, 0, 0, 0, 0, 0, 0, 0, 0, 0, 0, 0, 0, 0, 0, 0, 0, 0, 0, 0, 0, 0, 0, 0, 0, 0, 0, 0, 0, 0, 0, 0, 0, 0, 0, 0, 0, 0, 0, 0, 0, 0
0, 0, 70, 0, 3, 8, 20, 37, 43, 59, 126, 82, 120, 142, 169, 192, 222, 174, 221, 256, 266, 255, 228, 217, 243, 243, 216, 218, 237, 224, 197, 185, 194, 179, 155, 121, 132, 126, 121, 111, 82, 84, 84, 44, 31, 18, 1, 0, 0, 0, 0, 0, 0, 0, 0, 0, 0, 0, 0, 0, 0, 0, 0, 0, 0, 0, 0, 0, 0, 0, 0, 0, 0, 0, 0, 0, 0, 0, 0, 0, 0, 0, 0, 0, 0, 0, 0, 0, 0, 0, 0, 0, 0, 0, 0, 0, 0, 0, 0, 0, 0, 0, 0, 0, 0, 0
0, 0, 71, 0, 1, 8, 16, 25, 52, 59, 113, 96, 122, 143, 189, 208, 206, 221, 246, 253, 228, 236, 252, 282, 243, 235, 215, 246, 222, 226, 197, 188, 210, 186, 178, 161, 118, 139, 141, 109, 99, 84, 78, 64, 25, 21, 0, 0, 0, 0, 0, 0, 0, 0, 0, 0, 0, 0, 0, 0, 0, 0, 0, 0, 0, 0, 0, 0, 0, 0, 0, 0, 0, 0, 0, 0, 0, 0, 0, 0, 0, 0, 0, 0, 0, 0, 0, 0, 0, 0, 0, 0, 0, 0, 0, 0, 0, 0, 0, 0, 0, 0, 0, 0, 0, 0
0, 0, 72, 5, 1, 10, 11, 31, 41, 54, 117, 91, 128, 143, 191, 180, 190, 220, 211, 265, 253, 252, 228, 280, 232, 258, 226, 220, 244, 228, 195, 197, 177, 162, 164, 149, 145, 111, 127, 105, 106, 83, 60, 66, 38, 22, 1, 0, 0, 0, 0, 0, 0, 0, 0, 0, 0, 0, 0, 0, 0, 0, 0, 0, 0, 0, 0, 0, 0, 0, 0, 0, 0, 0, 0, 0, 0, 0, 0, 0, 0, 0, 0, 0, 0, 0, 0, 0, 0, 0, 0, 0, 0, 0, 0, 0, 0, 0, 0, 0, 0, 0, 0, 0, 0, 0
0, 0, 73, 2, 4, 6, 23, 29, 45, 61, 111, 93, 133, 137, 176, 194, 194, 244, 238, 236, 282, 271, 268, 247, 243, 241, 252, 201, 215, 213, 219, 194, 189, 157, 165, 161, 143, 141, 122, 102, 84, 72, 80, 62, 45, 20, 0, 0, 0, 0, 0, 0, 0, 0, 0, 0, 0, 0, 0, 0, 0, 0, 0, 0, 0, 0, 0, 0, 0, 0, 0, 0, 0, 0, 0, 0, 0, 0, 0, 0, 0, 0, 0, 0, 0, 0, 0, 0, 0, 0, 0, 0, 0, 0, 0, 0, 0, 0, 0, 0, 0, 0, 0, 0, 0, 0
0, 0, 74, 6, 3, 4, 17, 22, 30, 48, 95, 81, 119, 167, 172, 188, 200, 211, 250, 260, 262, 245, 230, 244, 233, 242, 207, 232, 223, 197, 195, 195, 182, 148, 164, 147, 156, 143, 103, 103, 88, 86, 68, 58, 46, 16, 5, 0, 0, 0, 0, 0, 0, 0, 0, 0, 0, 0, 0, 0, 0, 0, 0, 0, 0, 0, 0, 0, 0, 0, 0, 0, 0, 0, 0, 0, 0, 0, 0, 0, 0, 0, 0, 0, 0, 0, 0, 0, 0, 0, 0, 0, 0, 0, 0, 0, 0, 0, 0, 0, 0, 0, 0, 0, 0, 0
0, 0, 75, 2, 4, 4, 12, 25, 36, 49, 115, 99, 128, 136, 183, 192, 181, 223, 211, 252, 262, 254, 281, 269, 278, 225, 247, 211, 216, 196, 209, 177, 172, 164, 162, 154, 143, 153, 89, 114, 81, 81, 81, 44, 33, 27, 2, 0, 0, 0, 0, 0, 0, 0, 0, 0, 0, 0, 0, 0, 0, 0, 0, 0, 0, 0, 0, 0, 0, 0, 0, 0, 0, 0, 0, 0, 0, 0, 0, 0, 0, 0, 0, 0, 0, 0, 0, 0, 0, 0, 0, 0, 0, 0, 0, 0, 0, 0, 0, 0, 0, 0, 0, 0, 0, 0
0, 0, 76, 3, 3, 5, 12, 25, 41, 64, 119, 105, 106, 132, 170, 214, 206, 187, 231, 228, 223, 245, 261, 231, 300, 271, 222, 205, 226, 199, 226, 197, 201, 170, 175, 175, 124, 124, 116, 97, 79, 77, 70, 50, 34, 25, 2, 0, 0, 0, 0, 0, 0, 0, 0, 0, 0, 0, 0, 0, 0, 0, 0, 0, 0, 0, 0, 0, 0, 0, 0, 0, 0, 0, 0, 0, 0, 0, 0, 0, 0, 0, 0, 0, 0, 0, 0, 0, 0, 0, 0, 0, 0, 0, 0, 0, 0, 0, 0, 0, 0, 0, 0, 0, 0, 0
0, 0, 77, 2, 4, 7, 14, 18, 34, 61, 93, 97, 127, 144, 165, 212, 204, 212, 264, 215, 258, 289, 242, 255, 251, 228, 214, 209, 178, 183, 188, 176, 201, 179, 154, 178, 134, 139, 119, 92, 106, 80, 61, 57, 31, 23, 3, 0, 0, 0, 0, 0, 0, 0, 0, 0, 0, 0, 0, 0, 0, 0, 0, 0, 0, 0, 0, 0, 0, 0, 0, 0, 0, 0, 0, 0, 0, 0, 0, 0, 0, 0, 0, 0, 0, 0, 0, 0, 0, 0, 0, 0, 0, 0, 0, 0, 0, 0, 0, 0, 0, 0, 0, 0, 0, 0
