# TOPAS Version: 3.1.p3
# Parameter File: REDLEN_small_phantom_mc_basic_4cm.txt
# Results for scorer PhantomDose
# Scored on surface: CdTeCrystal1/YPlusSurface
# X in 100 bins of 0.03332 cm
# Y in 1 bin  of 0.4 cm
# Z in 100 bins of 0.0375 cm
# SurfaceTrackCount : Sum   
# Binned by incident track energy in 100 bins of 0.00104 MeV from 0.016 MeV to 0.12 MeV
# First bin is underflow, next to last bin is overflow, last bin is for case of no incident track.
0, 0, 0, 2, 0, 0, 0, 0, 0, 0, 0, 1, 2, 2, 1, 2, 0, 1, 1, 0, 1, 1, 3, 3, 1, 1, 4, 0, 1, 4, 2, 4, 3, 1, 2, 1, 3, 2, 1, 4, 1, 1, 0, 0, 1, 0, 0, 0, 0, 0, 0, 0, 0, 0, 0, 0, 0, 0, 0, 0, 0, 0, 0, 0, 0, 0, 0, 0, 0, 0, 0, 0, 0, 0, 0, 0, 0, 0, 0, 0, 0, 0, 0, 0, 0, 0, 0, 0, 0, 0, 0, 0, 0, 0, 0, 0, 0, 0, 0, 0, 0, 0, 0, 0, 0, 0
0, 0, 1, 0, 0, 0, 0, 0, 0, 0, 0, 1, 0, 1, 1, 2, 3, 5, 1, 3, 2, 0, 2, 2, 2, 2, 1, 2, 2, 3, 2, 2, 3, 1, 1, 2, 1, 0, 2, 2, 3, 0, 0, 2, 0, 0, 0, 0, 0, 0, 0, 0, 0, 0, 0, 0, 0, 0, 0, 0, 0, 0, 0, 0, 0, 0, 0, 0, 0, 0, 0, 0, 0, 0, 0, 0, 0, 0, 0, 0, 0, 0, 0, 0, 0, 0, 0, 0, 0, 0, 0, 0, 0, 0, 0, 0, 0, 0, 0, 0, 0, 0, 0, 0, 0, 0
0, 0, 2, 2, 0, 0, 0, 0, 0, 0, 1, 0, 1, 0, 0, 5, 1, 2, 4, 6, 4, 5, 2, 3, 5, 3, 4, 3, 3, 2, 2, 2, 0, 0, 4, 1, 0, 3, 0, 2, 1, 2, 3, 0, 0, 0, 0, 0, 0, 0, 0, 0, 0, 0, 0, 0, 0, 0, 0, 0, 0, 0, 0, 0, 0, 0, 0, 0, 0, 0, 0, 0, 0, 0, 0, 0, 0, 0, 0, 0, 0, 0, 0, 0, 0, 0, 0, 0, 0, 0, 0, 0, 0, 0, 0, 0, 0, 0, 0, 0, 0, 0, 0, 0, 0, 0
0, 0, 3, 0, 3, 0, 0, 0, 0, 0, 0, 0, 1, 0, 1, 0, 1, 1, 3, 3, 1, 0, 1, 1, 2, 4, 2, 1, 3, 3, 1, 7, 2, 2, 0, 0, 5, 1, 2, 2, 4, 2, 2, 0, 1, 0, 0, 0, 0, 0, 0, 0, 0, 0, 0, 0, 0, 0, 0, 0, 0, 0, 0, 0, 0, 0, 0, 0, 0, 0, 0, 0, 0, 0, 0, 0, 0, 0, 0, 0, 0, 0, 0, 0, 0, 0, 0, 0, 0, 0, 0, 0, 0, 0, 0, 0, 0, 0, 0, 0, 0, 0, 0, 0, 0, 0
0, 0, 4, 0, 0, 0, 0, 2, 0, 0, 2, 1, 1, 1, 2, 2, 0, 0, 3, 1, 1, 4, 1, 1, 6, 2, 1, 2, 0, 4, 3, 1, 1, 1, 1, 0, 2, 2, 1, 2, 0, 0, 0, 2, 0, 0, 0, 0, 0, 0, 0, 0, 0, 0, 0, 0, 0, 0, 0, 0, 0, 0, 0, 0, 0, 0, 0, 0, 0, 0, 0, 0, 0, 0, 0, 0, 0, 0, 0, 0, 0, 0, 0, 0, 0, 0, 0, 0, 0, 0, 0, 0, 0, 0, 0, 0, 0, 0, 0, 0, 0, 0, 0, 0, 0, 0
0, 0, 5, 0, 0, 2, 4, 13, 20, 22, 58, 37, 47, 53, 77, 81, 77, 89, 86, 90, 102, 103, 116, 107, 112, 96, 132, 92, 91, 70, 79, 78, 80, 63, 81, 53, 65, 64, 44, 46, 43, 39, 35, 22, 5, 6, 0, 0, 0, 0, 0, 0, 0, 0, 0, 0, 0, 0, 0, 0, 0, 0, 0, 0, 0, 0, 0, 0, 0, 0, 0, 0, 0, 0, 0, 0, 0, 0, 0, 0, 0, 0, 0, 0, 0, 0, 0, 0, 0, 0, 0, 0, 0, 0, 0, 0, 0, 0, 0, 0, 0, 0, 0, 0, 0, 0
0, 0, 6, 1, 2, 9, 15, 24, 33, 61, 123, 115, 121, 131, 164, 193, 201, 190, 200, 244, 253, 220, 268, 220, 234, 249, 269, 206, 216, 209, 202, 185, 182, 160, 164, 162, 142, 125, 109, 104, 84, 72, 66, 51, 45, 20, 0, 0, 0, 0, 0, 0, 0, 0, 0, 0, 0, 0, 0, 0, 0, 0, 0, 0, 0, 0, 0, 0, 0, 0, 0, 0, 0, 0, 0, 0, 0, 0, 0, 0, 0, 0, 0, 0, 0, 0, 0, 0, 0, 0, 0, 0, 0, 0, 0, 0, 0, 0, 0, 0, 0, 0, 0, 0, 0, 0
0, 0, 7, 4, 4, 8, 16, 25, 39, 59, 116, 91, 121, 123, 176, 201, 181, 208, 241, 228, 267, 257, 245, 277, 254, 213, 227, 222, 237, 233, 172, 182, 174, 188, 172, 157, 126, 119, 90, 111, 98, 78, 55, 43, 42, 21, 1, 0, 0, 0, 0, 0, 0, 0, 0, 0, 0, 0, 0, 0, 0, 0, 0, 0, 0, 0, 0, 0, 0, 0, 0, 0, 0, 0, 0, 0, 0, 0, 0, 0, 0, 0, 0, 0, 0, 0, 0, 0, 0, 0, 0, 0, 0, 0, 0, 0, 0, 0, 0, 0, 0, 0, 0, 0, 0, 0
0, 0, 8, 3, 3, 17, 15, 17, 53, 55, 106, 93, 125, 163, 180, 230, 217, 205, 256, 261, 258, 249, 213, 291, 275, 237, 219, 210, 204, 199, 201, 192, 176, 173, 153, 140, 142, 127, 121, 110, 101, 67, 71, 60, 45, 22, 1, 0, 0, 0, 0, 0, 0, 0, 0, 0, 0, 0, 0, 0, 0, 0, 0, 0, 0, 0, 0, 0, 0, 0, 0, 0, 0, 0, 0, 0, 0, 0, 0, 0, 0, 0, 0, 0, 0, 0, 0, 0, 0, 0, 0, 0, 0, 0, 0, 0, 0, 0, 0, 0, 0, 0, 0, 0, 0, 0
0, 0, 9, 2, 4, 12, 13, 24, 34, 67, 117, 88, 124, 147, 168, 210, 186, 212, 202, 250, 251, 261, 262, 258, 230, 244, 237, 249, 197, 207, 197, 182, 168, 142, 182, 139, 149, 139, 139, 104, 96, 79, 57, 68, 34, 24, 3, 0, 0, 0, 0, 0, 0, 0, 0, 0, 0, 0, 0, 0, 0, 0, 0, 0, 0, 0, 0, 0, 0, 0, 0, 0, 0, 0, 0, 0, 0, 0, 0, 0, 0, 0, 0, 0, 0, 0, 0, 0, 0, 0, 0, 0, 0, 0, 0, 0, 0, 0, 0, 0, 0, 0, 0, 0, 0, 0
0, 0, 10, 6, 8, 6, 11, 30, 32, 58, 126, 90, 120, 150, 176, 200, 199, 224, 205, 257, 213, 243, 259, 249, 236, 241, 241, 229, 215, 233, 199, 167, 150, 172, 155, 154, 147, 131, 129, 124, 93, 77, 58, 64, 42, 18, 0, 0, 0, 0, 0, 0, 0, 0, 0, 0, 0, 0, 0, 0, 0, 0, 0, 0, 0, 0, 0, 0, 0, 0, 0, 0, 0, 0, 0, 0, 0, 0, 0, 0, 0, 0, 0, 0, 0, 0, 0, 0, 0, 0, 0, 0, 0, 0, 0, 0, 0, 0, 0, 0, 0, 0, 0, 0, 0, 0
0, 0, 11, 10, 1, 3, 9, 23, 33, 49, 125, 95, 117, 147, 157, 191, 184, 203, 236, 238, 234, 254, 246, 243, 233, 226, 238, 258, 209, 221, 186, 185, 180, 188, 147, 149, 115, 123, 111, 128, 96, 66, 75, 49, 48, 20, 0, 0, 0, 0, 0, 0, 0, 0, 0, 0, 0, 0, 0, 0, 0, 0, 0, 0, 0, 0, 0, 0, 0, 0, 0, 0, 0, 0, 0, 0, 0, 0, 0, 0, 0, 0, 0, 0, 0, 0, 0, 0, 0, 0, 0, 0, 0, 0, 0, 0, 0, 0, 0, 0, 0, 0, 0, 0, 0, 0
0, 0, 12, 1, 6, 6, 17, 26, 42, 66, 116, 93, 96, 146, 170, 191, 187, 214, 199, 256, 237, 243, 217, 238, 261, 232, 222, 247, 202, 209, 193, 185, 178, 169, 169, 147, 143, 124, 101, 89, 101, 75, 74, 60, 38, 32, 1, 0, 0, 0, 0, 0, 0, 0, 0, 0, 0, 0, 0, 0, 0, 0, 0, 0, 0, 0, 0, 0, 0, 0, 0, 0, 0, 0, 0, 0, 0, 0, 0, 0, 0, 0, 0, 0, 0, 0, 0, 0, 0, 0, 0, 0, 0, 0, 0, 0, 0, 0, 0, 0, 0, 0, 0, 0, 0, 0
0, 0, 13, 2, 2, 13, 17, 25, 35, 44, 128, 78, 126, 139, 157, 201, 201, 225, 255, 242, 248, 244, 208, 231, 246, 231, 193, 220, 183, 226, 200, 208, 184, 179, 148, 148, 144, 112, 116, 113, 87, 85, 67, 57, 35, 18, 0, 0, 0, 0, 0, 0, 0, 0, 0, 0, 0, 0, 0, 0, 0, 0, 0, 0, 0, 0, 0, 0, 0, 0, 0, 0, 0, 0, 0, 0, 0, 0, 0, 0, 0, 0, 0, 0, 0, 0, 0, 0, 0, 0, 0, 0, 0, 0, 0, 0, 0, 0, 0, 0, 0, 0, 0, 0, 0, 0
0, 0, 14, 2, 2, 6, 13, 30, 49, 64, 119, 95, 113, 130, 183, 193, 196, 202, 211, 255, 234, 232, 267, 237, 240, 201, 214, 250, 209, 168, 188, 207, 157, 170, 153, 139, 137, 139, 114, 106, 110, 87, 49, 41, 41, 20, 1, 0, 0, 0, 0, 0, 0, 0, 0, 0, 0, 0, 0, 0, 0, 0, 0, 0, 0, 0, 0, 0, 0, 0, 0, 0, 0, 0, 0, 0, 0, 0, 0, 0, 0, 0, 0, 0, 0, 0, 0, 0, 0, 0, 0, 0, 0, 0, 0, 0, 0, 0, 0, 0, 0, 0, 0, 0, 0, 0
0, 0, 15, 1, 1, 9, 14, 26, 42, 59, 127, 105, 105, 143, 175, 189, 216, 213, 205, 217, 279, 236, 263, 240, 248, 220, 216, 237, 209, 192, 192, 208, 177, 167, 150, 160, 154, 136, 119, 103, 101, 79, 77, 52, 30, 23, 3, 0, 0, 0, 0, 0, 0, 0, 0, 0, 0, 0, 0, 0, 0, 0, 0, 0, 0, 0, 0, 0, 0, 0, 0, 0, 0, 0, 0, 0, 0, 0, 0, 0, 0, 0, 0, 0, 0, 0, 0, 0, 0, 0, 0, 0, 0, 0, 0, 0, 0, 0, 0, 0, 0, 0, 0, 0, 0, 0
0, 0, 16, 3, 2, 4, 19, 15, 37, 73, 126, 93, 90, 147, 149, 227, 184, 197, 236, 250, 276, 268, 256, 250, 233, 224, 216, 263, 178, 207, 195, 183, 191, 170, 147, 144, 151, 137, 126, 106, 85, 81, 61, 56, 54, 18, 2, 0, 0, 0, 0, 0, 0, 0, 0, 0, 0, 0, 0, 0, 0, 0, 0, 0, 0, 0, 0, 0, 0, 0, 0, 0, 0, 0, 0, 0, 0, 0, 0, 0, 0, 0, 0, 0, 0, 0, 0, 0, 0, 0, 0, 0, 0, 0, 0, 0, 0, 0, 0, 0, 0, 0, 0, 0, 0, 0
0, 0, 17, 0, 5, 4, 16, 25, 40, 59, 104, 98, 110, 141, 170, 181, 185, 218, 239, 251, 232, 260, 258, 245, 220, 230, 213, 230, 236, 224, 193, 206, 193, 176, 170, 141, 127, 139, 114, 103, 85, 60, 76, 42, 43, 20, 1, 0, 0, 0, 0, 0, 0, 0, 0, 0, 0, 0, 0, 0, 0, 0, 0, 0, 0, 0, 0, 0, 0, 0, 0, 0, 0, 0, 0, 0, 0, 0, 0, 0, 0, 0, 0, 0, 0, 0, 0, 0, 0, 0, 0, 0, 0, 0, 0, 0, 0, 0, 0, 0, 0, 0, 0, 0, 0, 0
0, 0, 18, 6, 4, 12, 12, 27, 37, 39, 101, 87, 121, 149, 189, 203, 156, 209, 254, 241, 250, 265, 247, 222, 194, 214, 256, 241, 241, 203, 189, 193, 171, 177, 168, 143, 147, 127, 111, 98, 102, 59, 60, 51, 34, 21, 1, 0, 0, 0, 0, 0, 0, 0, 0, 0, 0, 0, 0, 0, 0, 0, 0, 0, 0, 0, 0, 0, 0, 0, 0, 0, 0, 0, 0, 0, 0, 0, 0, 0, 0, 0, 0, 0, 0, 0, 0, 0, 0, 0, 0, 0, 0, 0, 0, 0, 0, 0, 0, 0, 0, 0, 0, 0, 0, 0
0, 0, 19, 8, 2, 7, 11, 28, 36, 47, 142, 101, 116, 127, 202, 213, 235, 200, 213, 244, 239, 231, 270, 238, 253, 237, 258, 220, 228, 179, 224, 181, 177, 159, 167, 143, 132, 132, 116, 107, 85, 59, 69, 62, 34, 31, 3, 0, 0, 0, 0, 0, 0, 0, 0, 0, 0, 0, 0, 0, 0, 0, 0, 0, 0, 0, 0, 0, 0, 0, 0, 0, 0, 0, 0, 0, 0, 0, 0, 0, 0, 0, 0, 0, 0, 0, 0, 0, 0, 0, 0, 0, 0, 0, 0, 0, 0, 0, 0, 0, 0, 0, 0, 0, 0, 0
0, 0, 20, 8, 2, 8, 15, 22, 37, 62, 109, 94, 104, 155, 179, 194, 211, 198, 240, 237, 271, 249, 243, 245, 270, 226, 222, 225, 234, 236, 189, 215, 158, 181, 136, 137, 131, 133, 91, 106, 93, 79, 74, 64, 42, 25, 0, 0, 0, 0, 0, 0, 0, 0, 0, 0, 0, 0, 0, 0, 0, 0, 0, 0, 0, 0, 0, 0, 0, 0, 0, 0, 0, 0, 0, 0, 0, 0, 0, 0, 0, 0, 0, 0, 0, 0, 0, 0, 0, 0, 0, 0, 0, 0, 0, 0, 0, 0, 0, 0, 0, 0, 0, 0, 0, 0
0, 0, 21, 2, 5, 5, 10, 34, 32, 45, 111, 85, 114, 155, 168, 187, 212, 215, 277, 246, 252, 245, 268, 274, 234, 211, 232, 261, 198, 212, 219, 191, 198, 158, 158, 131, 132, 138, 103, 96, 88, 79, 62, 54, 36, 18, 1, 0, 0, 0, 0, 0, 0, 0, 0, 0, 0, 0, 0, 0, 0, 0, 0, 0, 0, 0, 0, 0, 0, 0, 0, 0, 0, 0, 0, 0, 0, 0, 0, 0, 0, 0, 0, 0, 0, 0, 0, 0, 0, 0, 0, 0, 0, 0, 0, 0, 0, 0, 0, 0, 0, 0, 0, 0, 0, 0
0, 0, 22, 1, 1, 10, 14, 27, 47, 49, 104, 94, 124, 146, 180, 213, 206, 210, 231, 235, 236, 249, 263, 256, 238, 236, 223, 230, 179, 199, 190, 193, 178, 159, 180, 128, 144, 155, 114, 102, 93, 93, 74, 52, 35, 29, 2, 0, 0, 0, 0, 0, 0, 0, 0, 0, 0, 0, 0, 0, 0, 0, 0, 0, 0, 0, 0, 0, 0, 0, 0, 0, 0, 0, 0, 0, 0, 0, 0, 0, 0, 0, 0, 0, 0, 0, 0, 0, 0, 0, 0, 0, 0, 0, 0, 0, 0, 0, 0, 0, 0, 0, 0, 0, 0, 0
0, 0, 23, 2, 1, 5, 10, 25, 40, 59, 111, 87, 117, 167, 164, 196, 215, 246, 241, 218, 252, 254, 254, 222, 268, 223, 245, 256, 204, 204, 216, 199, 166, 162, 162, 140, 127, 124, 137, 99, 86, 92, 65, 47, 37, 21, 1, 0, 0, 0, 0, 0, 0, 0, 0, 0, 0, 0, 0, 0, 0, 0, 0, 0, 0, 0, 0, 0, 0, 0, 0, 0, 0, 0, 0, 0, 0, 0, 0, 0, 0, 0, 0, 0, 0, 0, 0, 0, 0, 0, 0, 0, 0, 0, 0, 0, 0, 0, 0, 0, 0, 0, 0, 0, 0, 0
0, 0, 24, 6, 6, 5, 15, 27, 30, 64, 123, 100, 121, 143, 171, 186, 212, 212, 227, 254, 238, 243, 234, 234, 224, 236, 229, 214, 200, 226, 211, 179, 166, 168, 136, 120, 120, 120, 94, 94, 83, 77, 74, 46, 37, 21, 1, 0, 0, 0, 0, 0, 0, 0, 0, 0, 0, 0, 0, 0, 0, 0, 0, 0, 0, 0, 0, 0, 0, 0, 0, 0, 0, 0, 0, 0, 0, 0, 0, 0, 0, 0, 0, 0, 0, 0, 0, 0, 0, 0, 0, 0, 0, 0, 0, 0, 0, 0, 0, 0, 0, 0, 0, 0, 0, 0
0, 0, 25, 5, 3, 2, 13, 26, 39, 55, 129, 99, 99, 136, 178, 210, 192, 231, 230, 224, 225, 233, 273, 226, 220, 231, 221, 226, 203, 212, 175, 195, 203, 176, 175, 161, 139, 137, 121, 111, 81, 71, 64, 47, 48, 27, 2, 0, 0, 0, 0, 0, 0, 0, 0, 0, 0, 0, 0, 0, 0, 0, 0, 0, 0, 0, 0, 0, 0, 0, 0, 0, 0, 0, 0, 0, 0, 0, 0, 0, 0, 0, 0, 0, 0, 0, 0, 0, 0, 0, 0, 0, 0, 0, 0, 0, 0, 0, 0, 0, 0, 0, 0, 0, 0, 0
0, 0, 26, 2, 3, 7, 15, 39, 40, 47, 127, 94, 113, 135, 153, 214, 215, 206, 226, 240, 252, 271, 262, 218, 236, 243, 242, 210, 231, 197, 205, 211, 167, 158, 159, 167, 133, 121, 105, 110, 107, 80, 57, 72, 46, 20, 0, 0, 0, 0, 0, 0, 0, 0, 0, 0, 0, 0, 0, 0, 0, 0, 0, 0, 0, 0, 0, 0, 0, 0, 0, 0, 0, 0, 0, 0, 0, 0, 0, 0, 0, 0, 0, 0, 0, 0, 0, 0, 0, 0, 0, 0, 0, 0, 0, 0, 0, 0, 0, 0, 0, 0, 0, 0, 0, 0
0, 0, 27, 3, 3, 9, 9, 41, 44, 71, 115, 82, 128, 141, 149, 209, 209, 257, 224, 217, 257, 253, 259, 231, 238, 235, 212, 268, 203, 214, 182, 189, 188, 173, 142, 154, 121, 128, 93, 100, 97, 88, 58, 57, 42, 20, 0, 0, 0, 0, 0, 0, 0, 0, 0, 0, 0, 0, 0, 0, 0, 0, 0, 0, 0, 0, 0, 0, 0, 0, 0, 0, 0, 0, 0, 0, 0, 0, 0, 0, 0, 0, 0, 0, 0, 0, 0, 0, 0, 0, 0, 0, 0, 0, 0, 0, 0, 0, 0, 0, 0, 0, 0, 0, 0, 0
0, 0, 28, 1, 3, 8, 13, 22, 50, 55, 110, 95, 121, 145, 179, 190, 206, 219, 247, 225, 246, 226, 231, 264, 242, 198, 218, 226, 216, 217, 199, 180, 172, 180, 168, 164, 144, 117, 115, 94, 82, 84, 77, 58, 44, 17, 0, 0, 0, 0, 0, 0, 0, 0, 0, 0, 0, 0, 0, 0, 0, 0, 0, 0, 0, 0, 0, 0, 0, 0, 0, 0, 0, 0, 0, 0, 0, 0, 0, 0, 0, 0, 0, 0, 0, 0, 0, 0, 0, 0, 0, 0, 0, 0, 0, 0, 0, 0, 0, 0, 0, 0, 0, 0, 0, 0
0, 0, 29, 2, 2, 11, 16, 25, 37, 51, 123, 94, 136, 150, 160, 236, 202, 236, 226, 224, 258, 243, 263, 256, 222, 229, 232, 251, 237, 181, 193, 218, 176, 165, 134, 137, 165, 127, 110, 106, 84, 67, 59, 48, 43, 22, 2, 0, 0, 0, 0, 0, 0, 0, 0, 0, 0, 0, 0, 0, 0, 0, 0, 0, 0, 0, 0, 0, 0, 0, 0, 0, 0, 0, 0, 0, 0, 0, 0, 0, 0, 0, 0, 0, 0, 0, 0, 0, 0, 0, 0, 0, 0, 0, 0, 0, 0, 0, 0, 0, 0, 0, 0, 0, 0, 0
0, 0, 30, 5, 6, 6, 10, 24, 43, 55, 113, 100, 125, 154, 173, 183, 207, 209, 194, 231, 254, 246, 206, 246, 237, 247, 236, 226, 252, 194, 185, 202, 190, 184, 155, 151, 156, 129, 107, 96, 95, 92, 65, 38, 39, 20, 3, 0, 0, 0, 0, 0, 0, 0, 0, 0, 0, 0, 0, 0, 0, 0, 0, 0, 0, 0, 0, 0, 0, 0, 0, 0, 0, 0, 0, 0, 0, 0, 0, 0, 0, 0, 0, 0, 0, 0, 0, 0, 0, 0, 0, 0, 0, 0, 0, 0, 0, 0, 0, 0, 0, 0, 0, 0, 0, 0
0, 0, 31, 1, 5, 8, 15, 30, 36, 58, 114, 84, 122, 143, 154, 169, 219, 209, 218, 230, 268, 237, 243, 254, 232, 249, 244, 221, 223, 216, 211, 193, 202, 159, 157, 147, 159, 132, 124, 101, 82, 70, 80, 53, 35, 20, 2, 0, 0, 0, 0, 0, 0, 0, 0, 0, 0, 0, 0, 0, 0, 0, 0, 0, 0, 0, 0, 0, 0, 0, 0, 0, 0, 0, 0, 0, 0, 0, 0, 0, 0, 0, 0, 0, 0, 0, 0, 0, 0, 0, 0, 0, 0, 0, 0, 0, 0, 0, 0, 0, 0, 0, 0, 0, 0, 0
0, 0, 32, 2, 5, 14, 15, 24, 48, 62, 117, 93, 126, 139, 181, 193, 196, 229, 222, 247, 256, 257, 236, 238, 246, 234, 217, 215, 224, 200, 197, 198, 177, 137, 159, 142, 139, 135, 106, 101, 84, 79, 75, 47, 55, 21, 1, 0, 0, 0, 0, 0, 0, 0, 0, 0, 0, 0, 0, 0, 0, 0, 0, 0, 0, 0, 0, 0, 0, 0, 0, 0, 0, 0, 0, 0, 0, 0, 0, 0, 0, 0, 0, 0, 0, 0, 0, 0, 0, 0, 0, 0, 0, 0, 0, 0, 0, 0, 0, 0, 0, 0, 0, 0, 0, 0
0, 0, 33, 2, 6, 13, 8, 24, 40, 51, 133, 96, 113, 142, 169, 212, 199, 220, 241, 215, 221, 245, 301, 255, 231, 223, 275, 249, 243, 227, 213, 213, 191, 169, 163, 160, 123, 135, 120, 104, 102, 87, 55, 47, 34, 26, 0, 0, 0, 0, 0, 0, 0, 0, 0, 0, 0, 0, 0, 0, 0, 0, 0, 0, 0, 0, 0, 0, 0, 0, 0, 0, 0, 0, 0, 0, 0, 0, 0, 0, 0, 0, 0, 0, 0, 0, 0, 0, 0, 0, 0, 0, 0, 0, 0, 0, 0, 0, 0, 0, 0, 0, 0, 0, 0, 0
0, 0, 34, 0, 1, 8, 17, 28, 39, 60, 95, 81, 117, 139, 169, 225, 193, 225, 217, 230, 244, 222, 235, 256, 243, 217, 256, 231, 217, 194, 198, 174, 172, 173, 175, 128, 141, 132, 86, 104, 91, 110, 74, 48, 38, 26, 1, 0, 0, 0, 0, 0, 0, 0, 0, 0, 0, 0, 0, 0, 0, 0, 0, 0, 0, 0, 0, 0, 0, 0, 0, 0, 0, 0, 0, 0, 0, 0, 0, 0, 0, 0, 0, 0, 0, 0, 0, 0, 0, 0, 0, 0, 0, 0, 0, 0, 0, 0, 0, 0, 0, 0, 0, 0, 0, 0
0, 0, 35, 0, 7, 5, 15, 24, 40, 46, 129, 124, 108, 162, 168, 207, 214, 227, 208, 222, 232, 218, 237, 253, 252, 241, 250, 237, 207, 208, 209, 171, 193, 183, 156, 154, 133, 120, 137, 114, 70, 77, 78, 48, 43, 18, 2, 0, 0, 0, 0, 0, 0, 0, 0, 0, 0, 0, 0, 0, 0, 0, 0, 0, 0, 0, 0, 0, 0, 0, 0, 0, 0, 0, 0, 0, 0, 0, 0, 0, 0, 0, 0, 0, 0, 0, 0, 0, 0, 0, 0, 0, 0, 0, 0, 0, 0, 0, 0, 0, 0, 0, 0, 0, 0, 0
0, 0, 36, 4, 3, 9, 13, 18, 41, 62, 129, 96, 119, 138, 153, 221, 179, 195, 227, 238, 250, 254, 239, 227, 226, 220, 253, 231, 209, 220, 210, 212, 198, 182, 159, 139, 141, 143, 111, 97, 94, 79, 68, 56, 46, 28, 0, 0, 0, 0, 0, 0, 0, 0, 0, 0, 0, 0, 0, 0, 0, 0, 0, 0, 0, 0, 0, 0, 0, 0, 0, 0, 0, 0, 0, 0, 0, 0, 0, 0, 0, 0, 0, 0, 0, 0, 0, 0, 0, 0, 0, 0, 0, 0, 0, 0, 0, 0, 0, 0, 0, 0, 0, 0, 0, 0
0, 0, 37, 3, 3, 5, 13, 27, 35, 56, 131, 79, 99, 143, 175, 187, 214, 218, 228, 219, 222, 224, 267, 246, 246, 234, 223, 217, 209, 218, 193, 204, 182, 163, 175, 125, 135, 122, 146, 113, 73, 77, 67, 68, 40, 21, 3, 0, 0, 0, 0, 0, 0, 0, 0, 0, 0, 0, 0, 0, 0, 0, 0, 0, 0, 0, 0, 0, 0, 0, 0, 0, 0, 0, 0, 0, 0, 0, 0, 0, 0, 0, 0, 0, 0, 0, 0, 0, 0, 0, 0, 0, 0, 0, 0, 0, 0, 0, 0, 0, 0, 0, 0, 0, 0, 0
0, 0, 38, 3, 2, 12, 12, 24, 40, 63, 114, 102, 108, 129, 175, 200, 197, 240, 213, 224, 261, 247, 217, 212, 244, 255, 236, 206, 271, 225, 220, 186, 189, 167, 160, 141, 124, 146, 123, 104, 114, 105, 64, 69, 40, 24, 1, 0, 0, 0, 0, 0, 0, 0, 0, 0, 0, 0, 0, 0, 0, 0, 0, 0, 0, 0, 0, 0, 0, 0, 0, 0, 0, 0, 0, 0, 0, 0, 0, 0, 0, 0, 0, 0, 0, 0, 0, 0, 0, 0, 0, 0, 0, 0, 0, 0, 0, 0, 0, 0, 0, 0, 0, 0, 0, 0
0, 0, 39, 0, 4, 5, 12, 21, 47, 65, 119, 97, 115, 151, 147, 209, 203, 213, 205, 240, 260, 258, 247, 239, 278, 241, 215, 215, 242, 189, 177, 189, 178, 155, 170, 164, 134, 126, 101, 116, 86, 85, 64, 53, 32, 24, 2, 0, 0, 0, 0, 0, 0, 0, 0, 0, 0, 0, 0, 0, 0, 0, 0, 0, 0, 0, 0, 0, 0, 0, 0, 0, 0, 0, 0, 0, 0, 0, 0, 0, 0, 0, 0, 0, 0, 0, 0, 0, 0, 0, 0, 0, 0, 0, 0, 0, 0, 0, 0, 0, 0, 0, 0, 0, 0, 0
0, 0, 40, 5, 3, 4, 11, 22, 32, 56, 94, 91, 106, 143, 186, 226, 186, 229, 262, 214, 273, 265, 272, 270, 222, 250, 221, 223, 178, 198, 188, 205, 192, 166, 142, 147, 143, 125, 101, 110, 95, 85, 62, 77, 53, 17, 2, 0, 0, 0, 0, 0, 0, 0, 0, 0, 0, 0, 0, 0, 0, 0, 0, 0, 0, 0, 0, 0, 0, 0, 0, 0, 0, 0, 0, 0, 0, 0, 0, 0, 0, 0, 0, 0, 0, 0, 0, 0, 0, 0, 0, 0, 0, 0, 0, 0, 0, 0, 0, 0, 0, 0, 0, 0, 0, 0
0, 0, 41, 0, 3, 4, 6, 31, 30, 47, 112, 78, 95, 141, 154, 199, 178, 211, 180, 211, 222, 238, 228, 223, 206, 236, 204, 184, 204, 167, 195, 179, 170, 166, 132, 162, 126, 109, 100, 83, 92, 78, 61, 64, 45, 18, 0, 0, 0, 0, 0, 0, 0, 0, 0, 0, 0, 0, 0, 0, 0, 0, 0, 0, 0, 0, 0, 0, 0, 0, 0, 0, 0, 0, 0, 0, 0, 0, 0, 0, 0, 0, 0, 0, 0, 0, 0, 0, 0, 0, 0, 0, 0, 0, 0, 0, 0, 0, 0, 0, 0, 0, 0, 0, 0, 0
0, 0, 42, 0, 0, 9, 9, 17, 25, 49, 86, 72, 75, 123, 140, 159, 143, 167, 188, 193, 188, 202, 179, 183, 190, 187, 144, 142, 183, 158, 130, 143, 142, 128, 146, 111, 129, 112, 77, 87, 66, 58, 39, 39, 32, 23, 2, 0, 0, 0, 0, 0, 0, 0, 0, 0, 0, 0, 0, 0, 0, 0, 0, 0, 0, 0, 0, 0, 0, 0, 0, 0, 0, 0, 0, 0, 0, 0, 0, 0, 0, 0, 0, 0, 0, 0, 0, 0, 0, 0, 0, 0, 0, 0, 0, 0, 0, 0, 0, 0, 0, 0, 0, 0, 0, 0
0, 0, 43, 0, 0, 2, 13, 13, 18, 29, 54, 58, 58, 76, 100, 121, 95, 130, 129, 143, 163, 144, 154, 144, 136, 149, 140, 145, 127, 113, 133, 103, 108, 94, 108, 90, 68, 79, 77, 79, 61, 50, 32, 34, 38, 13, 0, 0, 0, 0, 0, 0, 0, 0, 0, 0, 0, 0, 0, 0, 0, 0, 0, 0, 0, 0, 0, 0, 0, 0, 0, 0, 0, 0, 0, 0, 0, 0, 0, 0, 0, 0, 0, 0, 0, 0, 0, 0, 0, 0, 0, 0, 0, 0, 0, 0, 0, 0, 0, 0, 0, 0, 0, 0, 0, 0
0, 0, 44, 0, 3, 2, 6, 8, 10, 19, 39, 40, 60, 51, 69, 82, 75, 102, 84, 101, 96, 101, 113, 138, 122, 118, 101, 89, 121, 100, 99, 77, 68, 90, 96, 75, 63, 69, 61, 49, 41, 34, 36, 30, 21, 10, 0, 0, 0, 0, 0, 0, 0, 0, 0, 0, 0, 0, 0, 0, 0, 0, 0, 0, 0, 0, 0, 0, 0, 0, 0, 0, 0, 0, 0, 0, 0, 0, 0, 0, 0, 0, 0, 0, 0, 0, 0, 0, 0, 0, 0, 0, 0, 0, 0, 0, 0, 0, 0, 0, 0, 0, 0, 0, 0, 0
0, 0, 45, 0, 0, 2, 4, 9, 8, 21, 23, 21, 26, 34, 49, 69, 70, 62, 95, 95, 83, 79, 67, 74, 89, 83, 78, 103, 76, 93, 61, 75, 64, 47, 57, 46, 60, 46, 50, 43, 34, 38, 21, 24, 20, 12, 0, 0, 0, 0, 0, 0, 0, 0, 0, 0, 0, 0, 0, 0, 0, 0, 0, 0, 0, 0, 0, 0, 0, 0, 0, 0, 0, 0, 0, 0, 0, 0, 0, 0, 0, 0, 0, 0, 0, 0, 0, 0, 0, 0, 0, 0, 0, 0, 0, 0, 0, 0, 0, 0, 0, 0, 0, 0, 0, 0
0, 0, 46, 0, 0, 0, 2, 4, 3, 11, 20, 15, 19, 34, 30, 34, 32, 41, 37, 56, 63, 66, 54, 67, 52, 79, 75, 69, 58, 60, 60, 62, 48, 54, 56, 35, 42, 41, 40, 41, 36, 24, 34, 18, 11, 6, 1, 0, 0, 0, 0, 0, 0, 0, 0, 0, 0, 0, 0, 0, 0, 0, 0, 0, 0, 0, 0, 0, 0, 0, 0, 0, 0, 0, 0, 0, 0, 0, 0, 0, 0, 0, 0, 0, 0, 0, 0, 0, 0, 0, 0, 0, 0, 0, 0, 0, 0, 0, 0, 0, 0, 0, 0, 0, 0, 0
0, 0, 47, 0, 1, 0, 0, 2, 1, 8, 6, 9, 11, 14, 23, 17, 27, 31, 40, 31, 41, 38, 43, 45, 39, 34, 55, 38, 56, 55, 35, 37, 48, 48, 28, 34, 36, 27, 23, 26, 33, 15, 14, 10, 10, 4, 0, 0, 0, 0, 0, 0, 0, 0, 0, 0, 0, 0, 0, 0, 0, 0, 0, 0, 0, 0, 0, 0, 0, 0, 0, 0, 0, 0, 0, 0, 0, 0, 0, 0, 0, 0, 0, 0, 0, 0, 0, 0, 0, 0, 0, 0, 0, 0, 0, 0, 0, 0, 0, 0, 0, 0, 0, 0, 0, 0
0, 0, 48, 0, 0, 0, 0, 1, 1, 2, 8, 4, 8, 11, 8, 21, 10, 18, 25, 29, 27, 27, 22, 43, 35, 36, 20, 36, 36, 26, 26, 32, 26, 39, 37, 31, 27, 29, 34, 15, 15, 17, 13, 15, 6, 3, 0, 0, 0, 0, 0, 0, 0, 0, 0, 0, 0, 0, 0, 0, 0, 0, 0, 0, 0, 0, 0, 0, 0, 0, 0, 0, 0, 0, 0, 0, 0, 0, 0, 0, 0, 0, 0, 0, 0, 0, 0, 0, 0, 0, 0, 0, 0, 0, 0, 0, 0, 0, 0, 0, 0, 0, 0, 0, 0, 0
0, 0, 49, 2, 1, 0, 0, 0, 1, 1, 6, 2, 2, 7, 4, 13, 5, 10, 17, 16, 18, 28, 25, 25, 26, 26, 22, 31, 35, 32, 20, 30, 33, 26, 28, 29, 27, 28, 13, 26, 14, 11, 12, 11, 6, 4, 1, 0, 0, 0, 0, 0, 0, 0, 0, 0, 0, 0, 0, 0, 0, 0, 0, 0, 0, 0, 0, 0, 0, 0, 0, 0, 0, 0, 0, 0, 0, 0, 0, 0, 0, 0, 0, 0, 0, 0, 0, 0, 0, 0, 0, 0, 0, 0, 0, 0, 0, 0, 0, 0, 0, 0, 0, 0, 0, 0
0, 0, 50, 2, 1, 0, 0, 0, 1, 1, 6, 1, 0, 3, 6, 11, 9, 12, 20, 15, 22, 23, 32, 21, 22, 32, 34, 37, 21, 34, 18, 30, 40, 22, 32, 23, 30, 16, 22, 25, 11, 12, 14, 11, 14, 5, 0, 0, 0, 0, 0, 0, 0, 0, 0, 0, 0, 0, 0, 0, 0, 0, 0, 0, 0, 0, 0, 0, 0, 0, 0, 0, 0, 0, 0, 0, 0, 0, 0, 0, 0, 0, 0, 0, 0, 0, 0, 0, 0, 0, 0, 0, 0, 0, 0, 0, 0, 0, 0, 0, 0, 0, 0, 0, 0, 0
0, 0, 51, 0, 0, 0, 0, 0, 1, 2, 9, 2, 4, 9, 11, 16, 13, 19, 19, 23, 35, 33, 22, 31, 42, 26, 42, 40, 32, 43, 40, 35, 30, 43, 34, 19, 34, 24, 20, 14, 20, 18, 16, 10, 9, 4, 1, 0, 0, 0, 0, 0, 0, 0, 0, 0, 0, 0, 0, 0, 0, 0, 0, 0, 0, 0, 0, 0, 0, 0, 0, 0, 0, 0, 0, 0, 0, 0, 0, 0, 0, 0, 0, 0, 0, 0, 0, 0, 0, 0, 0, 0, 0, 0, 0, 0, 0, 0, 0, 0, 0, 0, 0, 0, 0, 0
0, 0, 52, 0, 0, 2, 0, 2, 3, 5, 12, 6, 10, 14, 26, 25, 38, 39, 31, 23, 28, 39, 40, 38, 39, 49, 44, 29, 42, 40, 43, 43, 35, 38, 32, 37, 25, 29, 27, 17, 22, 22, 22, 15, 12, 4, 1, 0, 0, 0, 0, 0, 0, 0, 0, 0, 0, 0, 0, 0, 0, 0, 0, 0, 0, 0, 0, 0, 0, 0, 0, 0, 0, 0, 0, 0, 0, 0, 0, 0, 0, 0, 0, 0, 0, 0, 0, 0, 0, 0, 0, 0, 0, 0, 0, 0, 0, 0, 0, 0, 0, 0, 0, 0, 0, 0
0, 0, 53, 0, 0, 1, 6, 4, 9, 4, 12, 22, 21, 20, 32, 35, 37, 44, 46, 46, 72, 70, 67, 55, 54, 68, 64, 72, 47, 73, 66, 46, 50, 52, 38, 54, 39, 48, 26, 24, 22, 21, 17, 15, 10, 6, 0, 0, 0, 0, 0, 0, 0, 0, 0, 0, 0, 0, 0, 0, 0, 0, 0, 0, 0, 0, 0, 0, 0, 0, 0, 0, 0, 0, 0, 0, 0, 0, 0, 0, 0, 0, 0, 0, 0, 0, 0, 0, 0, 0, 0, 0, 0, 0, 0, 0, 0, 0, 0, 0, 0, 0, 0, 0, 0, 0
0, 0, 54, 0, 1, 0, 6, 5, 10, 22, 31, 33, 35, 42, 54, 43, 61, 78, 70, 84, 90, 80, 90, 91, 74, 92, 69, 96, 69, 64, 68, 75, 72, 66, 60, 57, 54, 49, 32, 40, 58, 37, 43, 23, 17, 6, 0, 0, 0, 0, 0, 0, 0, 0, 0, 0, 0, 0, 0, 0, 0, 0, 0, 0, 0, 0, 0, 0, 0, 0, 0, 0, 0, 0, 0, 0, 0, 0, 0, 0, 0, 0, 0, 0, 0, 0, 0, 0, 0, 0, 0, 0, 0, 0, 0, 0, 0, 0, 0, 0, 0, 0, 0, 0, 0, 0
0, 0, 55, 0, 0, 3, 3, 7, 15, 25, 42, 42, 53, 49, 62, 73, 62, 95, 106, 104, 115, 110, 111, 112, 109, 114, 99, 105, 103, 100, 99, 93, 95, 83, 77, 75, 51, 66, 54, 47, 48, 35, 29, 34, 23, 11, 1, 0, 0, 0, 0, 0, 0, 0, 0, 0, 0, 0, 0, 0, 0, 0, 0, 0, 0, 0, 0, 0, 0, 0, 0, 0, 0, 0, 0, 0, 0, 0, 0, 0, 0, 0, 0, 0, 0, 0, 0, 0, 0, 0, 0, 0, 0, 0, 0, 0, 0, 0, 0, 0, 0, 0, 0, 0, 0, 0
0, 0, 56, 1, 2, 4, 7, 9, 18, 25, 59, 51, 60, 74, 98, 100, 100, 111, 129, 134, 153, 131, 133, 147, 159, 150, 134, 136, 125, 131, 111, 116, 101, 90, 119, 79, 87, 53, 72, 67, 57, 55, 42, 28, 24, 18, 0, 0, 0, 0, 0, 0, 0, 0, 0, 0, 0, 0, 0, 0, 0, 0, 0, 0, 0, 0, 0, 0, 0, 0, 0, 0, 0, 0, 0, 0, 0, 0, 0, 0, 0, 0, 0, 0, 0, 0, 0, 0, 0, 0, 0, 0, 0, 0, 0, 0, 0, 0, 0, 0, 0, 0, 0, 0, 0, 0
0, 0, 57, 1, 1, 6, 6, 13, 23, 49, 63, 63, 90, 105, 126, 148, 146, 152, 175, 196, 195, 163, 203, 161, 184, 175, 178, 185, 174, 171, 139, 156, 131, 118, 107, 128, 99, 76, 84, 74, 65, 63, 57, 45, 23, 18, 1, 0, 0, 0, 0, 0, 0, 0, 0, 0, 0, 0, 0, 0, 0, 0, 0, 0, 0, 0, 0, 0, 0, 0, 0, 0, 0, 0, 0, 0, 0, 0, 0, 0, 0, 0, 0, 0, 0, 0, 0, 0, 0, 0, 0, 0, 0, 0, 0, 0, 0, 0, 0, 0, 0, 0, 0, 0, 0, 0
0, 0, 58, 1, 5, 4, 10, 24, 44, 47, 103, 89, 98, 117, 158, 160, 165, 191, 240, 228, 212, 256, 225, 250, 215, 226, 207, 222, 201, 191, 189, 183, 172, 155, 171, 144, 160, 108, 122, 109, 81, 90, 50, 48, 40, 16, 0, 0, 0, 0, 0, 0, 0, 0, 0, 0, 0, 0, 0, 0, 0, 0, 0, 0, 0, 0, 0, 0, 0, 0, 0, 0, 0, 0, 0, 0, 0, 0, 0, 0, 0, 0, 0, 0, 0, 0, 0, 0, 0, 0, 0, 0, 0, 0, 0, 0, 0, 0, 0, 0, 0, 0, 0, 0, 0, 0
0, 0, 59, 0, 3, 5, 14, 25, 38, 61, 101, 104, 111, 147, 158, 197, 186, 231, 250, 234, 231, 235, 254, 263, 261, 212, 199, 228, 240, 202, 226, 185, 163, 169, 130, 148, 141, 120, 140, 102, 66, 87, 79, 57, 40, 15, 1, 0, 0, 0, 0, 0, 0, 0, 0, 0, 0, 0, 0, 0, 0, 0, 0, 0, 0, 0, 0, 0, 0, 0, 0, 0, 0, 0, 0, 0, 0, 0, 0, 0, 0, 0, 0, 0, 0, 0, 0, 0, 0, 0, 0, 0, 0, 0, 0, 0, 0, 0, 0, 0, 0, 0, 0, 0, 0, 0
0, 0, 60, 0, 1, 8, 14, 20, 45, 53, 120, 104, 108, 152, 161, 233, 211, 201, 213, 235, 231, 238, 236, 207, 265, 218, 242, 219, 204, 218, 191, 211, 182, 156, 141, 143, 129, 121, 117, 101, 107, 79, 62, 54, 36, 12, 2, 0, 0, 0, 0, 0, 0, 0, 0, 0, 0, 0, 0, 0, 0, 0, 0, 0, 0, 0, 0, 0, 0, 0, 0, 0, 0, 0, 0, 0, 0, 0, 0, 0, 0, 0, 0, 0, 0, 0, 0, 0, 0, 0, 0, 0, 0, 0, 0, 0, 0, 0, 0, 0, 0, 0, 0, 0, 0, 0
0, 0, 61, 1, 5, 2, 8, 27, 38, 70, 115, 109, 109, 134, 147, 207, 194, 203, 231, 283, 282, 244, 278, 238, 227, 279, 254, 255, 214, 222, 214, 207, 159, 170, 153, 150, 147, 138, 120, 110, 91, 72, 72, 53, 36, 25, 0, 0, 0, 0, 0, 0, 0, 0, 0, 0, 0, 0, 0, 0, 0, 0, 0, 0, 0, 0, 0, 0, 0, 0, 0, 0, 0, 0, 0, 0, 0, 0, 0, 0, 0, 0, 0, 0, 0, 0, 0, 0, 0, 0, 0, 0, 0, 0, 0, 0, 0, 0, 0, 0, 0, 0, 0, 0, 0, 0
0, 0, 62, 5, 3, 13, 17, 23, 32, 56, 127, 87, 110, 123, 176, 221, 204, 209, 241, 255, 258, 248, 277, 279, 220, 266, 250, 228, 222, 218, 208, 168, 182, 179, 157, 159, 115, 140, 115, 104, 93, 84, 68, 46, 31, 17, 1, 0, 0, 0, 0, 0, 0, 0, 0, 0, 0, 0, 0, 0, 0, 0, 0, 0, 0, 0, 0, 0, 0, 0, 0, 0, 0, 0, 0, 0, 0, 0, 0, 0, 0, 0, 0, 0, 0, 0, 0, 0, 0, 0, 0, 0, 0, 0, 0, 0, 0, 0, 0, 0, 0, 0, 0, 0, 0, 0
0, 0, 63, 1, 2, 14, 9, 27, 33, 53, 138, 107, 142, 140, 170, 189, 209, 217, 228, 252, 243, 233, 243, 229, 240, 253, 225, 212, 217, 249, 179, 192, 167, 150, 126, 173, 135, 105, 116, 103, 86, 76, 67, 69, 39, 29, 3, 0, 0, 0, 0, 0, 0, 0, 0, 0, 0, 0, 0, 0, 0, 0, 0, 0, 0, 0, 0, 0, 0, 0, 0, 0, 0, 0, 0, 0, 0, 0, 0, 0, 0, 0, 0, 0, 0, 0, 0, 0, 0, 0, 0, 0, 0, 0, 0, 0, 0, 0, 0, 0, 0, 0, 0, 0, 0, 0
0, 0, 64, 5, 3, 9, 14, 27, 40, 48, 115, 92, 117, 173, 206, 213, 197, 231, 208, 246, 215, 257, 261, 254, 260, 232, 218, 204, 224, 217, 183, 174, 162, 158, 161, 132, 131, 130, 123, 99, 101, 63, 76, 50, 40, 22, 1, 0, 0, 0, 0, 0, 0, 0, 0, 0, 0, 0, 0, 0, 0, 0, 0, 0, 0, 0, 0, 0, 0, 0, 0, 0, 0, 0, 0, 0, 0, 0, 0, 0, 0, 0, 0, 0, 0, 0, 0, 0, 0, 0, 0, 0, 0, 0, 0, 0, 0, 0, 0, 0, 0, 0, 0, 0, 0, 0
0, 0, 65, 3, 1, 7, 14, 17, 23, 71, 113, 91, 111, 144, 176, 214, 213, 195, 240, 239, 247, 236, 273, 288, 249, 241, 226, 224, 185, 200, 217, 196, 191, 186, 161, 135, 150, 125, 117, 94, 86, 74, 59, 58, 58, 21, 0, 0, 0, 0, 0, 0, 0, 0, 0, 0, 0, 0, 0, 0, 0, 0, 0, 0, 0, 0, 0, 0, 0, 0, 0, 0, 0, 0, 0, 0, 0, 0, 0, 0, 0, 0, 0, 0, 0, 0, 0, 0, 0, 0, 0, 0, 0, 0, 0, 0, 0, 0, 0, 0, 0, 0, 0, 0, 0, 0
0, 0, 66, 3, 4, 9, 13, 23, 32, 47, 126, 93, 118, 153, 194, 190, 196, 209, 232, 249, 233, 246, 256, 259, 276, 270, 216, 219, 206, 195, 195, 211, 213, 169, 168, 137, 140, 130, 126, 87, 101, 83, 72, 50, 35, 20, 0, 0, 0, 0, 0, 0, 0, 0, 0, 0, 0, 0, 0, 0, 0, 0, 0, 0, 0, 0, 0, 0, 0, 0, 0, 0, 0, 0, 0, 0, 0, 0, 0, 0, 0, 0, 0, 0, 0, 0, 0, 0, 0, 0, 0, 0, 0, 0, 0, 0, 0, 0, 0, 0, 0, 0, 0, 0, 0, 0
0, 0, 67, 0, 5, 7, 16, 25, 43, 63, 115, 89, 109, 157, 204, 176, 168, 207, 229, 226, 218, 228, 233, 263, 222, 204, 237, 210, 217, 236, 235, 204, 190, 159, 178, 177, 145, 106, 108, 91, 91, 78, 61, 47, 35, 18, 1, 0, 0, 0, 0, 0, 0, 0, 0, 0, 0, 0, 0, 0, 0, 0, 0, 0, 0, 0, 0, 0, 0, 0, 0, 0, 0, 0, 0, 0, 0, 0, 0, 0, 0, 0, 0, 0, 0, 0, 0, 0, 0, 0, 0, 0, 0, 0, 0, 0, 0, 0, 0, 0, 0, 0, 0, 0, 0, 0
0, 0, 68, 1, 3, 8, 13, 36, 37, 70, 95, 108, 126, 171, 177, 194, 184, 191, 213, 282, 215, 275, 212, 216, 230, 246, 223, 246, 223, 204, 211, 185, 166, 176, 157, 149, 113, 120, 122, 97, 78, 84, 73, 56, 40, 21, 0, 0, 0, 0, 0, 0, 0, 0, 0, 0, 0, 0, 0, 0, 0, 0, 0, 0, 0, 0, 0, 0, 0, 0, 0, 0, 0, 0, 0, 0, 0, 0, 0, 0, 0, 0, 0, 0, 0, 0, 0, 0, 0, 0, 0, 0, 0, 0, 0, 0, 0, 0, 0, 0, 0, 0, 0, 0, 0, 0
0, 0, 69, 2, 4, 8, 12, 27, 37, 64, 105, 79, 108, 138, 171, 184, 183, 209, 214, 241, 263, 262, 236, 272, 277, 211, 244, 243, 194, 243, 191, 187, 169, 171, 174, 158, 120, 142, 117, 89, 98, 73, 70, 45, 42, 20, 1, 0, 0, 0, 0, 0, 0, 0, 0, 0, 0, 0, 0, 0, 0, 0, 0, 0, 0, 0, 0, 0, 0, 0, 0, 0, 0, 0, 0, 0, 0, 0, 0, 0, 0, 0, 0, 0, 0, 0, 0, 0, 0, 0, 0, 0, 0, 0, 0, 0, 0, 0, 0, 0, 0, 0, 0, 0, 0, 0
0, 0, 70, 1, 3, 10, 15, 24, 35, 62, 129, 87, 104, 144, 166, 187, 232, 197, 242, 270, 244, 256, 244, 277, 243, 236, 252, 205, 231, 219, 198, 181, 163, 171, 166, 133, 146, 142, 114, 99, 89, 84, 56, 51, 38, 14, 0, 0, 0, 0, 0, 0, 0, 0, 0, 0, 0, 0, 0, 0, 0, 0, 0, 0, 0, 0, 0, 0, 0, 0, 0, 0, 0, 0, 0, 0, 0, 0, 0, 0, 0, 0, 0, 0, 0, 0, 0, 0, 0, 0, 0, 0, 0, 0, 0, 0, 0, 0, 0, 0, 0, 0, 0, 0, 0, 0
0, 0, 71, 6, 2, 10, 14, 23, 29, 62, 115, 106, 123, 135, 190, 188, 209, 203, 220, 228, 262, 258, 260, 251, 228, 253, 231, 232, 227, 213, 192, 183, 219, 133, 153, 149, 148, 133, 145, 123, 74, 75, 54, 51, 49, 14, 1, 0, 0, 0, 0, 0, 0, 0, 0, 0, 0, 0, 0, 0, 0, 0, 0, 0, 0, 0, 0, 0, 0, 0, 0, 0, 0, 0, 0, 0, 0, 0, 0, 0, 0, 0, 0, 0, 0, 0, 0, 0, 0, 0, 0, 0, 0, 0, 0, 0, 0, 0, 0, 0, 0, 0, 0, 0, 0, 0
0, 0, 72, 6, 1, 6, 14, 29, 36, 58, 127, 98, 117, 149, 164, 197, 179, 212, 214, 226, 262, 241, 241, 206, 233, 246, 238, 260, 221, 201, 219, 191, 163, 165, 162, 159, 131, 134, 99, 99, 86, 76, 73, 61, 45, 14, 2, 0, 0, 0, 0, 0, 0, 0, 0, 0, 0, 0, 0, 0, 0, 0, 0, 0, 0, 0, 0, 0, 0, 0, 0, 0, 0, 0, 0, 0, 0, 0, 0, 0, 0, 0, 0, 0, 0, 0, 0, 0, 0, 0, 0, 0, 0, 0, 0, 0, 0, 0, 0, 0, 0, 0, 0, 0, 0, 0
0, 0, 73, 3, 2, 10, 21, 33, 39, 42, 136, 97, 112, 149, 176, 213, 206, 213, 219, 251, 229, 261, 261, 239, 245, 239, 252, 269, 213, 244, 170, 168, 175, 189, 187, 145, 126, 148, 112, 107, 96, 74, 79, 73, 52, 29, 3, 0, 0, 0, 0, 0, 0, 0, 0, 0, 0, 0, 0, 0, 0, 0, 0, 0, 0, 0, 0, 0, 0, 0, 0, 0, 0, 0, 0, 0, 0, 0, 0, 0, 0, 0, 0, 0, 0, 0, 0, 0, 0, 0, 0, 0, 0, 0, 0, 0, 0, 0, 0, 0, 0, 0, 0, 0, 0, 0
0, 0, 74, 5, 1, 6, 19, 25, 42, 55, 114, 83, 127, 152, 176, 200, 231, 195, 214, 225, 250, 262, 261, 250, 229, 234, 229, 265, 221, 223, 207, 187, 167, 192, 172, 120, 131, 126, 112, 111, 71, 77, 69, 53, 38, 25, 1, 0, 0, 0, 0, 0, 0, 0, 0, 0, 0, 0, 0, 0, 0, 0, 0, 0, 0, 0, 0, 0, 0, 0, 0, 0, 0, 0, 0, 0, 0, 0, 0, 0, 0, 0, 0, 0, 0, 0, 0, 0, 0, 0, 0, 0, 0, 0, 0, 0, 0, 0, 0, 0, 0, 0, 0, 0, 0, 0
0, 0, 75, 3, 1, 10, 14, 21, 35, 59, 99, 82, 109, 150, 175, 195, 198, 242, 205, 237, 278, 279, 273, 234, 218, 220, 219, 254, 187, 213, 208, 235, 173, 144, 189, 162, 130, 138, 112, 102, 93, 72, 55, 64, 59, 12, 3, 0, 0, 0, 0, 0, 0, 0, 0, 0, 0, 0, 0, 0, 0, 0, 0, 0, 0, 0, 0, 0, 0, 0, 0, 0, 0, 0, 0, 0, 0, 0, 0, 0, 0, 0, 0, 0, 0, 0, 0, 0, 0, 0, 0, 0, 0, 0, 0, 0, 0, 0, 0, 0, 0, 0, 0, 0, 0, 0
0, 0, 76, 3, 1, 6, 17, 20, 32, 54, 129, 85, 108, 153, 186, 205, 213, 208, 260, 237, 230, 239, 253, 224, 250, 214, 232, 215, 205, 218, 191, 207, 179, 187, 144, 169, 120, 132, 127, 89, 84, 78, 62, 45, 30, 20, 1, 0, 0, 0, 0, 0, 0, 0, 0, 0, 0, 0, 0, 0, 0, 0, 0, 0, 0, 0, 0, 0, 0, 0, 0, 0, 0, 0, 0, 0, 0, 0, 0, 0, 0, 0, 0, 0, 0, 0, 0, 0, 0, 0, 0, 0, 0, 0, 0, 0, 0, 0, 0, 0, 0, 0, 0, 0, 0, 0
0, 0, 77, 8, 1, 10, 18, 22, 38, 57, 125, 95, 120, 179, 182, 171, 195, 203, 200, 234, 251, 228, 224, 207, 222, 235, 239, 218, 188, 181, 160, 185, 160, 170, 138, 135, 160, 137, 117, 115, 90, 65, 65, 61, 48, 26, 1, 0, 0, 0, 0, 0, 0, 0, 0, 0, 0, 0, 0, 0, 0, 0, 0, 0, 0, 0, 0, 0, 0, 0, 0, 0, 0, 0, 0, 0, 0, 0, 0, 0, 0, 0, 0, 0, 0, 0, 0, 0, 0, 0, 0, 0, 0, 0, 0, 0, 0, 0, 0, 0, 0, 0, 0, 0, 0, 0
