# TOPAS Version: 3.1.p3
# Parameter File: REDLEN_small_phantom_mc_basic_2cm.txt
# Results for scorer PhantomDose
# Scored on surface: CdTeCrystal1/YPlusSurface
# X in 100 bins of 0.03332 cm
# Y in 1 bin  of 0.4 cm
# Z in 100 bins of 0.0375 cm
# SurfaceTrackCount : Sum   
# Binned by incident track energy in 100 bins of 0.00104 MeV from 0.016 MeV to 0.12 MeV
# First bin is underflow, next to last bin is overflow, last bin is for case of no incident track.
0, 0, 0, 0, 0, 0, 0, 0, 0, 0, 2, 0, 1, 2, 1, 3, 2, 1, 2, 0, 1, 2, 2, 4, 2, 2, 3, 4, 3, 3, 4, 3, 0, 1, 2, 1, 1, 1, 3, 2, 1, 1, 0, 0, 0, 0, 0, 0, 0, 0, 0, 0, 0, 0, 0, 0, 0, 0, 0, 0, 0, 0, 0, 0, 0, 0, 0, 0, 0, 0, 0, 0, 0, 0, 0, 0, 0, 0, 0, 0, 0, 0, 0, 0, 0, 0, 0, 0, 0, 0, 0, 0, 0, 0, 0, 0, 0, 0, 0, 0, 0, 0, 0, 0, 0, 0
0, 0, 1, 2, 0, 0, 0, 0, 1, 0, 1, 0, 0, 0, 0, 5, 4, 0, 1, 1, 10, 1, 0, 2, 3, 5, 1, 3, 2, 4, 2, 4, 4, 1, 0, 3, 2, 1, 1, 1, 0, 0, 0, 0, 0, 0, 0, 0, 0, 0, 0, 0, 0, 0, 0, 0, 0, 0, 0, 0, 0, 0, 0, 0, 0, 0, 0, 0, 0, 0, 0, 0, 0, 0, 0, 0, 0, 0, 0, 0, 0, 0, 0, 0, 0, 0, 0, 0, 0, 0, 0, 0, 0, 0, 0, 0, 0, 0, 0, 0, 0, 0, 0, 0, 0, 0
0, 0, 2, 0, 0, 0, 0, 0, 0, 0, 0, 1, 2, 1, 3, 2, 2, 5, 2, 0, 7, 4, 1, 6, 1, 3, 4, 2, 4, 4, 4, 3, 2, 1, 0, 4, 3, 1, 3, 1, 1, 0, 1, 1, 0, 1, 0, 0, 0, 0, 0, 0, 0, 0, 0, 0, 0, 0, 0, 0, 0, 0, 0, 0, 0, 0, 0, 0, 0, 0, 0, 0, 0, 0, 0, 0, 0, 0, 0, 0, 0, 0, 0, 0, 0, 0, 0, 0, 0, 0, 0, 0, 0, 0, 0, 0, 0, 0, 0, 0, 0, 0, 0, 0, 0, 0
0, 0, 3, 0, 2, 0, 0, 0, 0, 0, 1, 0, 0, 0, 2, 3, 2, 3, 0, 3, 4, 3, 0, 7, 4, 3, 2, 2, 0, 3, 2, 0, 3, 2, 2, 1, 2, 2, 0, 0, 2, 1, 0, 0, 0, 0, 0, 0, 0, 0, 0, 0, 0, 0, 0, 0, 0, 0, 0, 0, 0, 0, 0, 0, 0, 0, 0, 0, 0, 0, 0, 0, 0, 0, 0, 0, 0, 0, 0, 0, 0, 0, 0, 0, 0, 0, 0, 0, 0, 0, 0, 0, 0, 0, 0, 0, 0, 0, 0, 0, 0, 0, 0, 0, 0, 0
0, 0, 4, 0, 1, 0, 0, 0, 1, 1, 0, 0, 0, 3, 0, 2, 1, 4, 4, 4, 1, 2, 2, 1, 2, 6, 0, 2, 6, 3, 4, 4, 0, 4, 1, 2, 1, 6, 0, 0, 0, 2, 3, 0, 1, 0, 0, 0, 0, 0, 0, 0, 0, 0, 0, 0, 0, 0, 0, 0, 0, 0, 0, 0, 0, 0, 0, 0, 0, 0, 0, 0, 0, 0, 0, 0, 0, 0, 0, 0, 0, 0, 0, 0, 0, 0, 0, 0, 0, 0, 0, 0, 0, 0, 0, 0, 0, 0, 0, 0, 0, 0, 0, 0, 0, 0
0, 0, 5, 1, 1, 1, 10, 13, 15, 27, 54, 49, 57, 62, 88, 82, 79, 97, 95, 111, 94, 113, 112, 128, 115, 113, 114, 99, 84, 68, 103, 76, 72, 68, 71, 74, 48, 60, 45, 37, 39, 38, 21, 17, 15, 0, 1, 0, 0, 0, 0, 0, 0, 0, 0, 0, 0, 0, 0, 0, 0, 0, 0, 0, 0, 0, 0, 0, 0, 0, 0, 0, 0, 0, 0, 0, 0, 0, 0, 0, 0, 0, 0, 0, 0, 0, 0, 0, 0, 0, 0, 0, 0, 0, 0, 0, 0, 0, 0, 0, 0, 0, 0, 0, 0, 0
0, 0, 6, 5, 4, 10, 14, 27, 43, 45, 112, 82, 123, 151, 150, 182, 194, 197, 230, 244, 227, 262, 276, 232, 236, 242, 225, 218, 250, 218, 181, 173, 193, 170, 144, 156, 150, 132, 118, 106, 100, 68, 56, 57, 49, 18, 0, 0, 0, 0, 0, 0, 0, 0, 0, 0, 0, 0, 0, 0, 0, 0, 0, 0, 0, 0, 0, 0, 0, 0, 0, 0, 0, 0, 0, 0, 0, 0, 0, 0, 0, 0, 0, 0, 0, 0, 0, 0, 0, 0, 0, 0, 0, 0, 0, 0, 0, 0, 0, 0, 0, 0, 0, 0, 0, 0
0, 0, 7, 5, 3, 6, 11, 27, 23, 53, 98, 88, 129, 153, 178, 159, 199, 244, 224, 265, 268, 237, 208, 263, 242, 200, 222, 210, 216, 209, 185, 196, 194, 162, 164, 124, 145, 139, 130, 143, 96, 78, 63, 55, 47, 29, 1, 0, 0, 0, 0, 0, 0, 0, 0, 0, 0, 0, 0, 0, 0, 0, 0, 0, 0, 0, 0, 0, 0, 0, 0, 0, 0, 0, 0, 0, 0, 0, 0, 0, 0, 0, 0, 0, 0, 0, 0, 0, 0, 0, 0, 0, 0, 0, 0, 0, 0, 0, 0, 0, 0, 0, 0, 0, 0, 0
0, 0, 8, 3, 2, 6, 23, 25, 33, 56, 111, 95, 99, 139, 190, 210, 210, 191, 240, 258, 282, 226, 232, 269, 246, 221, 220, 226, 237, 184, 193, 169, 154, 170, 167, 153, 144, 107, 130, 102, 102, 84, 58, 58, 49, 18, 1, 0, 0, 0, 0, 0, 0, 0, 0, 0, 0, 0, 0, 0, 0, 0, 0, 0, 0, 0, 0, 0, 0, 0, 0, 0, 0, 0, 0, 0, 0, 0, 0, 0, 0, 0, 0, 0, 0, 0, 0, 0, 0, 0, 0, 0, 0, 0, 0, 0, 0, 0, 0, 0, 0, 0, 0, 0, 0, 0
0, 0, 9, 2, 4, 10, 22, 36, 38, 51, 125, 83, 113, 158, 165, 236, 168, 208, 244, 230, 260, 252, 254, 245, 257, 238, 219, 200, 212, 224, 241, 176, 154, 195, 154, 136, 133, 113, 119, 111, 75, 66, 74, 70, 38, 11, 4, 0, 0, 0, 0, 0, 0, 0, 0, 0, 0, 0, 0, 0, 0, 0, 0, 0, 0, 0, 0, 0, 0, 0, 0, 0, 0, 0, 0, 0, 0, 0, 0, 0, 0, 0, 0, 0, 0, 0, 0, 0, 0, 0, 0, 0, 0, 0, 0, 0, 0, 0, 0, 0, 0, 0, 0, 0, 0, 0
0, 0, 10, 4, 3, 8, 20, 20, 45, 68, 116, 102, 121, 170, 172, 220, 187, 180, 232, 245, 252, 264, 250, 260, 268, 195, 218, 235, 209, 187, 201, 178, 163, 173, 164, 161, 142, 135, 116, 107, 85, 101, 55, 66, 41, 15, 1, 0, 0, 0, 0, 0, 0, 0, 0, 0, 0, 0, 0, 0, 0, 0, 0, 0, 0, 0, 0, 0, 0, 0, 0, 0, 0, 0, 0, 0, 0, 0, 0, 0, 0, 0, 0, 0, 0, 0, 0, 0, 0, 0, 0, 0, 0, 0, 0, 0, 0, 0, 0, 0, 0, 0, 0, 0, 0, 0
0, 0, 11, 2, 3, 7, 14, 35, 46, 62, 110, 99, 133, 151, 179, 217, 206, 242, 225, 249, 250, 230, 251, 261, 240, 226, 220, 219, 239, 213, 219, 173, 179, 156, 148, 158, 113, 128, 106, 96, 90, 81, 65, 54, 40, 23, 0, 0, 0, 0, 0, 0, 0, 0, 0, 0, 0, 0, 0, 0, 0, 0, 0, 0, 0, 0, 0, 0, 0, 0, 0, 0, 0, 0, 0, 0, 0, 0, 0, 0, 0, 0, 0, 0, 0, 0, 0, 0, 0, 0, 0, 0, 0, 0, 0, 0, 0, 0, 0, 0, 0, 0, 0, 0, 0, 0
0, 0, 12, 2, 5, 8, 10, 24, 32, 66, 112, 94, 108, 153, 201, 198, 185, 192, 235, 241, 235, 259, 213, 247, 270, 206, 232, 211, 224, 199, 192, 194, 216, 185, 145, 157, 134, 121, 133, 101, 97, 76, 64, 62, 40, 27, 3, 0, 0, 0, 0, 0, 0, 0, 0, 0, 0, 0, 0, 0, 0, 0, 0, 0, 0, 0, 0, 0, 0, 0, 0, 0, 0, 0, 0, 0, 0, 0, 0, 0, 0, 0, 0, 0, 0, 0, 0, 0, 0, 0, 0, 0, 0, 0, 0, 0, 0, 0, 0, 0, 0, 0, 0, 0, 0, 0
0, 0, 13, 6, 4, 11, 25, 31, 37, 52, 123, 86, 115, 156, 159, 207, 203, 202, 220, 251, 297, 219, 248, 276, 237, 209, 239, 235, 216, 208, 200, 243, 209, 202, 165, 143, 129, 122, 103, 93, 82, 71, 64, 49, 49, 22, 0, 0, 0, 0, 0, 0, 0, 0, 0, 0, 0, 0, 0, 0, 0, 0, 0, 0, 0, 0, 0, 0, 0, 0, 0, 0, 0, 0, 0, 0, 0, 0, 0, 0, 0, 0, 0, 0, 0, 0, 0, 0, 0, 0, 0, 0, 0, 0, 0, 0, 0, 0, 0, 0, 0, 0, 0, 0, 0, 0
0, 0, 14, 2, 5, 7, 9, 25, 39, 50, 114, 95, 105, 141, 187, 210, 192, 195, 225, 244, 260, 214, 267, 221, 253, 232, 251, 224, 236, 218, 211, 161, 169, 179, 168, 137, 159, 137, 111, 87, 71, 77, 72, 57, 37, 21, 3, 0, 0, 0, 0, 0, 0, 0, 0, 0, 0, 0, 0, 0, 0, 0, 0, 0, 0, 0, 0, 0, 0, 0, 0, 0, 0, 0, 0, 0, 0, 0, 0, 0, 0, 0, 0, 0, 0, 0, 0, 0, 0, 0, 0, 0, 0, 0, 0, 0, 0, 0, 0, 0, 0, 0, 0, 0, 0, 0
0, 0, 15, 3, 4, 12, 19, 24, 40, 55, 123, 104, 93, 138, 172, 205, 198, 225, 229, 271, 217, 260, 249, 269, 233, 234, 228, 248, 210, 224, 214, 195, 189, 186, 174, 153, 136, 142, 142, 101, 84, 72, 71, 44, 43, 23, 4, 0, 0, 0, 0, 0, 0, 0, 0, 0, 0, 0, 0, 0, 0, 0, 0, 0, 0, 0, 0, 0, 0, 0, 0, 0, 0, 0, 0, 0, 0, 0, 0, 0, 0, 0, 0, 0, 0, 0, 0, 0, 0, 0, 0, 0, 0, 0, 0, 0, 0, 0, 0, 0, 0, 0, 0, 0, 0, 0
0, 0, 16, 2, 3, 5, 13, 29, 34, 67, 122, 95, 127, 135, 167, 189, 206, 213, 246, 238, 244, 272, 284, 232, 212, 242, 227, 240, 221, 212, 174, 191, 174, 169, 165, 147, 140, 111, 104, 112, 89, 81, 55, 66, 42, 26, 2, 0, 0, 0, 0, 0, 0, 0, 0, 0, 0, 0, 0, 0, 0, 0, 0, 0, 0, 0, 0, 0, 0, 0, 0, 0, 0, 0, 0, 0, 0, 0, 0, 0, 0, 0, 0, 0, 0, 0, 0, 0, 0, 0, 0, 0, 0, 0, 0, 0, 0, 0, 0, 0, 0, 0, 0, 0, 0, 0
0, 0, 17, 1, 7, 8, 11, 21, 40, 71, 116, 102, 111, 155, 173, 186, 179, 238, 247, 232, 251, 228, 269, 217, 248, 236, 224, 217, 233, 211, 204, 175, 187, 166, 178, 129, 149, 126, 90, 105, 92, 80, 65, 59, 46, 27, 2, 0, 0, 0, 0, 0, 0, 0, 0, 0, 0, 0, 0, 0, 0, 0, 0, 0, 0, 0, 0, 0, 0, 0, 0, 0, 0, 0, 0, 0, 0, 0, 0, 0, 0, 0, 0, 0, 0, 0, 0, 0, 0, 0, 0, 0, 0, 0, 0, 0, 0, 0, 0, 0, 0, 0, 0, 0, 0, 0
0, 0, 18, 2, 5, 7, 21, 28, 26, 50, 143, 102, 113, 147, 148, 174, 183, 201, 229, 229, 247, 264, 264, 229, 228, 269, 220, 220, 219, 201, 187, 190, 212, 181, 166, 122, 164, 132, 117, 114, 92, 89, 77, 47, 50, 23, 2, 0, 0, 0, 0, 0, 0, 0, 0, 0, 0, 0, 0, 0, 0, 0, 0, 0, 0, 0, 0, 0, 0, 0, 0, 0, 0, 0, 0, 0, 0, 0, 0, 0, 0, 0, 0, 0, 0, 0, 0, 0, 0, 0, 0, 0, 0, 0, 0, 0, 0, 0, 0, 0, 0, 0, 0, 0, 0, 0
0, 0, 19, 3, 8, 6, 12, 12, 24, 52, 125, 105, 115, 145, 169, 203, 204, 213, 229, 253, 285, 258, 243, 217, 269, 257, 233, 228, 240, 181, 204, 188, 186, 172, 148, 151, 150, 131, 104, 115, 99, 66, 70, 51, 51, 22, 1, 0, 0, 0, 0, 0, 0, 0, 0, 0, 0, 0, 0, 0, 0, 0, 0, 0, 0, 0, 0, 0, 0, 0, 0, 0, 0, 0, 0, 0, 0, 0, 0, 0, 0, 0, 0, 0, 0, 0, 0, 0, 0, 0, 0, 0, 0, 0, 0, 0, 0, 0, 0, 0, 0, 0, 0, 0, 0, 0
0, 0, 20, 3, 4, 4, 13, 20, 42, 52, 119, 88, 124, 137, 167, 188, 218, 226, 249, 224, 236, 286, 280, 274, 260, 277, 247, 193, 242, 230, 200, 173, 176, 166, 186, 152, 138, 123, 101, 100, 72, 74, 62, 67, 45, 21, 4, 0, 0, 0, 0, 0, 0, 0, 0, 0, 0, 0, 0, 0, 0, 0, 0, 0, 0, 0, 0, 0, 0, 0, 0, 0, 0, 0, 0, 0, 0, 0, 0, 0, 0, 0, 0, 0, 0, 0, 0, 0, 0, 0, 0, 0, 0, 0, 0, 0, 0, 0, 0, 0, 0, 0, 0, 0, 0, 0
0, 0, 21, 0, 1, 11, 20, 31, 28, 53, 119, 115, 112, 136, 165, 193, 242, 228, 216, 291, 241, 234, 256, 232, 243, 253, 226, 236, 194, 186, 200, 187, 206, 161, 152, 146, 140, 115, 99, 113, 97, 86, 62, 58, 31, 25, 1, 0, 0, 0, 0, 0, 0, 0, 0, 0, 0, 0, 0, 0, 0, 0, 0, 0, 0, 0, 0, 0, 0, 0, 0, 0, 0, 0, 0, 0, 0, 0, 0, 0, 0, 0, 0, 0, 0, 0, 0, 0, 0, 0, 0, 0, 0, 0, 0, 0, 0, 0, 0, 0, 0, 0, 0, 0, 0, 0
0, 0, 22, 1, 4, 4, 22, 31, 35, 59, 108, 95, 117, 153, 169, 182, 242, 205, 233, 227, 260, 233, 225, 231, 234, 245, 230, 238, 201, 228, 188, 197, 183, 185, 138, 111, 139, 128, 120, 106, 97, 82, 79, 53, 36, 21, 1, 0, 0, 0, 0, 0, 0, 0, 0, 0, 0, 0, 0, 0, 0, 0, 0, 0, 0, 0, 0, 0, 0, 0, 0, 0, 0, 0, 0, 0, 0, 0, 0, 0, 0, 0, 0, 0, 0, 0, 0, 0, 0, 0, 0, 0, 0, 0, 0, 0, 0, 0, 0, 0, 0, 0, 0, 0, 0, 0
0, 0, 23, 4, 2, 6, 20, 23, 32, 53, 114, 96, 121, 130, 174, 206, 232, 212, 225, 255, 252, 271, 243, 261, 234, 252, 215, 214, 218, 229, 200, 184, 176, 155, 141, 150, 128, 118, 107, 99, 99, 91, 72, 56, 37, 27, 2, 0, 0, 0, 0, 0, 0, 0, 0, 0, 0, 0, 0, 0, 0, 0, 0, 0, 0, 0, 0, 0, 0, 0, 0, 0, 0, 0, 0, 0, 0, 0, 0, 0, 0, 0, 0, 0, 0, 0, 0, 0, 0, 0, 0, 0, 0, 0, 0, 0, 0, 0, 0, 0, 0, 0, 0, 0, 0, 0
0, 0, 24, 2, 2, 4, 20, 27, 47, 50, 113, 87, 122, 156, 150, 185, 193, 243, 210, 241, 251, 267, 269, 244, 228, 210, 272, 205, 219, 233, 185, 191, 203, 167, 164, 165, 132, 112, 99, 103, 78, 89, 71, 56, 39, 22, 0, 0, 0, 0, 0, 0, 0, 0, 0, 0, 0, 0, 0, 0, 0, 0, 0, 0, 0, 0, 0, 0, 0, 0, 0, 0, 0, 0, 0, 0, 0, 0, 0, 0, 0, 0, 0, 0, 0, 0, 0, 0, 0, 0, 0, 0, 0, 0, 0, 0, 0, 0, 0, 0, 0, 0, 0, 0, 0, 0
0, 0, 25, 3, 2, 7, 15, 17, 40, 51, 131, 85, 121, 144, 161, 182, 203, 206, 241, 231, 264, 231, 269, 247, 213, 231, 231, 238, 226, 194, 195, 187, 170, 173, 174, 147, 154, 140, 135, 98, 93, 88, 58, 44, 39, 26, 0, 0, 0, 0, 0, 0, 0, 0, 0, 0, 0, 0, 0, 0, 0, 0, 0, 0, 0, 0, 0, 0, 0, 0, 0, 0, 0, 0, 0, 0, 0, 0, 0, 0, 0, 0, 0, 0, 0, 0, 0, 0, 0, 0, 0, 0, 0, 0, 0, 0, 0, 0, 0, 0, 0, 0, 0, 0, 0, 0
0, 0, 26, 1, 4, 7, 19, 23, 47, 58, 132, 96, 130, 125, 187, 217, 198, 212, 240, 223, 242, 255, 242, 233, 251, 269, 245, 228, 223, 201, 211, 178, 180, 159, 134, 154, 142, 117, 113, 117, 76, 81, 77, 42, 41, 32, 2, 0, 0, 0, 0, 0, 0, 0, 0, 0, 0, 0, 0, 0, 0, 0, 0, 0, 0, 0, 0, 0, 0, 0, 0, 0, 0, 0, 0, 0, 0, 0, 0, 0, 0, 0, 0, 0, 0, 0, 0, 0, 0, 0, 0, 0, 0, 0, 0, 0, 0, 0, 0, 0, 0, 0, 0, 0, 0, 0
0, 0, 27, 4, 4, 9, 12, 18, 38, 48, 116, 88, 131, 127, 167, 194, 180, 212, 235, 235, 237, 254, 227, 234, 248, 219, 204, 224, 194, 231, 190, 205, 177, 195, 190, 145, 136, 101, 111, 103, 85, 87, 65, 55, 30, 17, 1, 0, 0, 0, 0, 0, 0, 0, 0, 0, 0, 0, 0, 0, 0, 0, 0, 0, 0, 0, 0, 0, 0, 0, 0, 0, 0, 0, 0, 0, 0, 0, 0, 0, 0, 0, 0, 0, 0, 0, 0, 0, 0, 0, 0, 0, 0, 0, 0, 0, 0, 0, 0, 0, 0, 0, 0, 0, 0, 0
0, 0, 28, 2, 2, 11, 13, 25, 46, 52, 116, 93, 112, 142, 170, 215, 178, 220, 231, 265, 256, 240, 242, 253, 258, 238, 230, 208, 216, 215, 216, 205, 184, 177, 155, 139, 137, 138, 122, 96, 94, 76, 67, 52, 34, 23, 3, 0, 0, 0, 0, 0, 0, 0, 0, 0, 0, 0, 0, 0, 0, 0, 0, 0, 0, 0, 0, 0, 0, 0, 0, 0, 0, 0, 0, 0, 0, 0, 0, 0, 0, 0, 0, 0, 0, 0, 0, 0, 0, 0, 0, 0, 0, 0, 0, 0, 0, 0, 0, 0, 0, 0, 0, 0, 0, 0
0, 0, 29, 3, 5, 10, 16, 28, 30, 59, 113, 85, 116, 147, 177, 186, 214, 207, 208, 237, 231, 275, 263, 237, 248, 215, 253, 252, 231, 194, 182, 197, 184, 169, 160, 140, 150, 122, 101, 123, 97, 76, 74, 73, 30, 20, 2, 0, 0, 0, 0, 0, 0, 0, 0, 0, 0, 0, 0, 0, 0, 0, 0, 0, 0, 0, 0, 0, 0, 0, 0, 0, 0, 0, 0, 0, 0, 0, 0, 0, 0, 0, 0, 0, 0, 0, 0, 0, 0, 0, 0, 0, 0, 0, 0, 0, 0, 0, 0, 0, 0, 0, 0, 0, 0, 0
0, 0, 30, 4, 2, 14, 9, 23, 45, 58, 112, 89, 113, 142, 183, 167, 209, 167, 243, 266, 232, 267, 257, 235, 247, 237, 230, 223, 226, 187, 189, 189, 165, 143, 163, 154, 131, 129, 135, 99, 108, 74, 62, 50, 31, 24, 1, 0, 0, 0, 0, 0, 0, 0, 0, 0, 0, 0, 0, 0, 0, 0, 0, 0, 0, 0, 0, 0, 0, 0, 0, 0, 0, 0, 0, 0, 0, 0, 0, 0, 0, 0, 0, 0, 0, 0, 0, 0, 0, 0, 0, 0, 0, 0, 0, 0, 0, 0, 0, 0, 0, 0, 0, 0, 0, 0
0, 0, 31, 6, 2, 4, 14, 20, 41, 59, 121, 93, 120, 136, 168, 188, 176, 223, 243, 248, 266, 244, 275, 264, 253, 255, 209, 240, 243, 207, 195, 191, 170, 159, 155, 170, 140, 121, 98, 100, 94, 64, 58, 49, 31, 25, 3, 0, 0, 0, 0, 0, 0, 0, 0, 0, 0, 0, 0, 0, 0, 0, 0, 0, 0, 0, 0, 0, 0, 0, 0, 0, 0, 0, 0, 0, 0, 0, 0, 0, 0, 0, 0, 0, 0, 0, 0, 0, 0, 0, 0, 0, 0, 0, 0, 0, 0, 0, 0, 0, 0, 0, 0, 0, 0, 0
0, 0, 32, 3, 4, 12, 14, 15, 45, 58, 135, 87, 118, 140, 161, 219, 207, 219, 249, 230, 256, 249, 267, 267, 241, 224, 221, 243, 218, 208, 198, 198, 184, 154, 143, 138, 140, 138, 97, 97, 96, 98, 71, 62, 37, 23, 1, 0, 0, 0, 0, 0, 0, 0, 0, 0, 0, 0, 0, 0, 0, 0, 0, 0, 0, 0, 0, 0, 0, 0, 0, 0, 0, 0, 0, 0, 0, 0, 0, 0, 0, 0, 0, 0, 0, 0, 0, 0, 0, 0, 0, 0, 0, 0, 0, 0, 0, 0, 0, 0, 0, 0, 0, 0, 0, 0
0, 0, 33, 2, 6, 9, 11, 19, 39, 59, 126, 87, 107, 141, 165, 215, 179, 216, 254, 266, 240, 256, 215, 232, 255, 267, 231, 221, 217, 233, 172, 154, 193, 169, 170, 177, 146, 129, 114, 119, 106, 77, 64, 58, 35, 20, 1, 0, 0, 0, 0, 0, 0, 0, 0, 0, 0, 0, 0, 0, 0, 0, 0, 0, 0, 0, 0, 0, 0, 0, 0, 0, 0, 0, 0, 0, 0, 0, 0, 0, 0, 0, 0, 0, 0, 0, 0, 0, 0, 0, 0, 0, 0, 0, 0, 0, 0, 0, 0, 0, 0, 0, 0, 0, 0, 0
0, 0, 34, 6, 2, 4, 18, 29, 37, 55, 112, 111, 103, 153, 157, 197, 180, 212, 208, 242, 252, 245, 243, 244, 230, 257, 244, 229, 237, 189, 224, 170, 192, 178, 178, 148, 126, 124, 102, 82, 99, 76, 74, 57, 44, 22, 0, 0, 0, 0, 0, 0, 0, 0, 0, 0, 0, 0, 0, 0, 0, 0, 0, 0, 0, 0, 0, 0, 0, 0, 0, 0, 0, 0, 0, 0, 0, 0, 0, 0, 0, 0, 0, 0, 0, 0, 0, 0, 0, 0, 0, 0, 0, 0, 0, 0, 0, 0, 0, 0, 0, 0, 0, 0, 0, 0
0, 0, 35, 0, 1, 8, 14, 23, 48, 52, 138, 88, 123, 138, 197, 179, 169, 214, 235, 258, 266, 256, 250, 264, 272, 272, 215, 220, 234, 211, 209, 183, 186, 151, 154, 125, 141, 144, 102, 101, 83, 81, 83, 54, 36, 12, 0, 0, 0, 0, 0, 0, 0, 0, 0, 0, 0, 0, 0, 0, 0, 0, 0, 0, 0, 0, 0, 0, 0, 0, 0, 0, 0, 0, 0, 0, 0, 0, 0, 0, 0, 0, 0, 0, 0, 0, 0, 0, 0, 0, 0, 0, 0, 0, 0, 0, 0, 0, 0, 0, 0, 0, 0, 0, 0, 0
0, 0, 36, 2, 5, 10, 13, 22, 34, 59, 127, 91, 140, 142, 182, 209, 205, 185, 251, 266, 254, 249, 283, 255, 236, 223, 236, 206, 225, 198, 200, 195, 186, 177, 152, 144, 141, 117, 96, 91, 88, 74, 85, 52, 28, 22, 2, 0, 0, 0, 0, 0, 0, 0, 0, 0, 0, 0, 0, 0, 0, 0, 0, 0, 0, 0, 0, 0, 0, 0, 0, 0, 0, 0, 0, 0, 0, 0, 0, 0, 0, 0, 0, 0, 0, 0, 0, 0, 0, 0, 0, 0, 0, 0, 0, 0, 0, 0, 0, 0, 0, 0, 0, 0, 0, 0
0, 0, 37, 1, 3, 11, 25, 23, 34, 53, 137, 87, 120, 143, 147, 203, 199, 196, 207, 251, 241, 251, 246, 225, 249, 242, 219, 253, 213, 193, 171, 197, 174, 164, 166, 152, 132, 115, 113, 108, 81, 84, 43, 47, 41, 20, 0, 0, 0, 0, 0, 0, 0, 0, 0, 0, 0, 0, 0, 0, 0, 0, 0, 0, 0, 0, 0, 0, 0, 0, 0, 0, 0, 0, 0, 0, 0, 0, 0, 0, 0, 0, 0, 0, 0, 0, 0, 0, 0, 0, 0, 0, 0, 0, 0, 0, 0, 0, 0, 0, 0, 0, 0, 0, 0, 0
0, 0, 38, 2, 4, 1, 16, 27, 47, 59, 110, 93, 117, 144, 147, 186, 192, 222, 241, 242, 238, 247, 236, 254, 249, 241, 252, 231, 213, 212, 188, 187, 167, 162, 172, 141, 127, 127, 115, 121, 98, 81, 69, 62, 39, 12, 2, 0, 0, 0, 0, 0, 0, 0, 0, 0, 0, 0, 0, 0, 0, 0, 0, 0, 0, 0, 0, 0, 0, 0, 0, 0, 0, 0, 0, 0, 0, 0, 0, 0, 0, 0, 0, 0, 0, 0, 0, 0, 0, 0, 0, 0, 0, 0, 0, 0, 0, 0, 0, 0, 0, 0, 0, 0, 0, 0
0, 0, 39, 4, 2, 13, 13, 30, 39, 63, 95, 95, 109, 151, 172, 184, 217, 211, 233, 256, 245, 228, 232, 244, 220, 251, 244, 241, 214, 219, 187, 185, 154, 152, 168, 148, 155, 114, 107, 108, 88, 81, 62, 51, 36, 17, 2, 0, 0, 0, 0, 0, 0, 0, 0, 0, 0, 0, 0, 0, 0, 0, 0, 0, 0, 0, 0, 0, 0, 0, 0, 0, 0, 0, 0, 0, 0, 0, 0, 0, 0, 0, 0, 0, 0, 0, 0, 0, 0, 0, 0, 0, 0, 0, 0, 0, 0, 0, 0, 0, 0, 0, 0, 0, 0, 0
0, 0, 40, 3, 2, 2, 14, 24, 38, 69, 115, 108, 123, 135, 162, 201, 205, 215, 246, 286, 278, 261, 246, 267, 243, 264, 250, 220, 233, 221, 190, 185, 177, 177, 150, 170, 131, 130, 121, 114, 92, 69, 52, 52, 38, 17, 1, 0, 0, 0, 0, 0, 0, 0, 0, 0, 0, 0, 0, 0, 0, 0, 0, 0, 0, 0, 0, 0, 0, 0, 0, 0, 0, 0, 0, 0, 0, 0, 0, 0, 0, 0, 0, 0, 0, 0, 0, 0, 0, 0, 0, 0, 0, 0, 0, 0, 0, 0, 0, 0, 0, 0, 0, 0, 0, 0
0, 0, 41, 0, 4, 9, 11, 23, 34, 54, 93, 72, 102, 141, 136, 171, 175, 203, 251, 228, 223, 229, 232, 221, 207, 212, 250, 222, 191, 186, 205, 169, 162, 186, 140, 143, 137, 123, 83, 89, 87, 75, 61, 49, 34, 22, 1, 0, 0, 0, 0, 0, 0, 0, 0, 0, 0, 0, 0, 0, 0, 0, 0, 0, 0, 0, 0, 0, 0, 0, 0, 0, 0, 0, 0, 0, 0, 0, 0, 0, 0, 0, 0, 0, 0, 0, 0, 0, 0, 0, 0, 0, 0, 0, 0, 0, 0, 0, 0, 0, 0, 0, 0, 0, 0, 0
0, 0, 42, 0, 3, 7, 7, 19, 33, 53, 82, 63, 94, 101, 128, 172, 183, 147, 187, 200, 205, 210, 199, 208, 211, 159, 203, 187, 160, 165, 154, 137, 125, 143, 154, 134, 100, 128, 96, 107, 72, 67, 58, 42, 38, 22, 1, 0, 0, 0, 0, 0, 0, 0, 0, 0, 0, 0, 0, 0, 0, 0, 0, 0, 0, 0, 0, 0, 0, 0, 0, 0, 0, 0, 0, 0, 0, 0, 0, 0, 0, 0, 0, 0, 0, 0, 0, 0, 0, 0, 0, 0, 0, 0, 0, 0, 0, 0, 0, 0, 0, 0, 0, 0, 0, 0
0, 0, 43, 0, 2, 6, 7, 17, 25, 23, 74, 55, 65, 65, 109, 153, 126, 120, 163, 176, 167, 156, 164, 164, 196, 190, 172, 175, 161, 153, 141, 123, 148, 113, 119, 120, 101, 89, 69, 80, 49, 67, 49, 34, 31, 9, 2, 0, 0, 0, 0, 0, 0, 0, 0, 0, 0, 0, 0, 0, 0, 0, 0, 0, 0, 0, 0, 0, 0, 0, 0, 0, 0, 0, 0, 0, 0, 0, 0, 0, 0, 0, 0, 0, 0, 0, 0, 0, 0, 0, 0, 0, 0, 0, 0, 0, 0, 0, 0, 0, 0, 0, 0, 0, 0, 0
0, 0, 44, 0, 0, 7, 9, 13, 14, 24, 48, 43, 53, 65, 78, 78, 112, 118, 118, 114, 130, 127, 136, 131, 129, 129, 150, 175, 140, 143, 125, 115, 109, 103, 107, 94, 80, 70, 77, 65, 66, 53, 51, 32, 23, 15, 2, 0, 0, 0, 0, 0, 0, 0, 0, 0, 0, 0, 0, 0, 0, 0, 0, 0, 0, 0, 0, 0, 0, 0, 0, 0, 0, 0, 0, 0, 0, 0, 0, 0, 0, 0, 0, 0, 0, 0, 0, 0, 0, 0, 0, 0, 0, 0, 0, 0, 0, 0, 0, 0, 0, 0, 0, 0, 0, 0
0, 0, 45, 0, 1, 1, 6, 2, 15, 18, 43, 30, 43, 41, 71, 53, 75, 80, 96, 117, 103, 110, 116, 132, 123, 141, 99, 112, 99, 87, 106, 128, 118, 104, 75, 94, 72, 75, 46, 63, 53, 52, 42, 36, 32, 19, 0, 0, 0, 0, 0, 0, 0, 0, 0, 0, 0, 0, 0, 0, 0, 0, 0, 0, 0, 0, 0, 0, 0, 0, 0, 0, 0, 0, 0, 0, 0, 0, 0, 0, 0, 0, 0, 0, 0, 0, 0, 0, 0, 0, 0, 0, 0, 0, 0, 0, 0, 0, 0, 0, 0, 0, 0, 0, 0, 0
0, 0, 46, 2, 0, 0, 2, 1, 9, 14, 36, 21, 36, 41, 45, 64, 61, 67, 89, 79, 107, 118, 105, 103, 116, 102, 100, 77, 109, 109, 89, 88, 103, 81, 56, 83, 71, 70, 55, 44, 45, 46, 40, 29, 33, 12, 0, 0, 0, 0, 0, 0, 0, 0, 0, 0, 0, 0, 0, 0, 0, 0, 0, 0, 0, 0, 0, 0, 0, 0, 0, 0, 0, 0, 0, 0, 0, 0, 0, 0, 0, 0, 0, 0, 0, 0, 0, 0, 0, 0, 0, 0, 0, 0, 0, 0, 0, 0, 0, 0, 0, 0, 0, 0, 0, 0
0, 0, 47, 3, 0, 0, 3, 3, 6, 17, 19, 17, 18, 31, 41, 56, 65, 58, 70, 90, 83, 90, 95, 96, 95, 103, 105, 94, 97, 104, 90, 87, 92, 90, 97, 82, 62, 50, 56, 47, 43, 39, 47, 31, 17, 11, 1, 0, 0, 0, 0, 0, 0, 0, 0, 0, 0, 0, 0, 0, 0, 0, 0, 0, 0, 0, 0, 0, 0, 0, 0, 0, 0, 0, 0, 0, 0, 0, 0, 0, 0, 0, 0, 0, 0, 0, 0, 0, 0, 0, 0, 0, 0, 0, 0, 0, 0, 0, 0, 0, 0, 0, 0, 0, 0, 0
0, 0, 48, 0, 0, 0, 2, 1, 4, 6, 24, 9, 19, 41, 35, 39, 47, 58, 61, 75, 78, 70, 65, 59, 105, 108, 65, 94, 69, 87, 80, 93, 64, 59, 57, 60, 64, 50, 46, 47, 46, 39, 28, 18, 30, 10, 0, 0, 0, 0, 0, 0, 0, 0, 0, 0, 0, 0, 0, 0, 0, 0, 0, 0, 0, 0, 0, 0, 0, 0, 0, 0, 0, 0, 0, 0, 0, 0, 0, 0, 0, 0, 0, 0, 0, 0, 0, 0, 0, 0, 0, 0, 0, 0, 0, 0, 0, 0, 0, 0, 0, 0, 0, 0, 0, 0
0, 0, 49, 1, 1, 0, 1, 0, 3, 3, 16, 10, 16, 24, 31, 41, 39, 45, 57, 46, 55, 65, 72, 81, 95, 107, 88, 107, 94, 79, 84, 66, 66, 68, 72, 50, 60, 54, 49, 41, 41, 36, 37, 23, 20, 11, 1, 0, 0, 0, 0, 0, 0, 0, 0, 0, 0, 0, 0, 0, 0, 0, 0, 0, 0, 0, 0, 0, 0, 0, 0, 0, 0, 0, 0, 0, 0, 0, 0, 0, 0, 0, 0, 0, 0, 0, 0, 0, 0, 0, 0, 0, 0, 0, 0, 0, 0, 0, 0, 0, 0, 0, 0, 0, 0, 0
0, 0, 50, 3, 0, 0, 0, 3, 3, 8, 15, 10, 15, 32, 49, 42, 35, 49, 60, 67, 48, 68, 73, 74, 77, 79, 72, 75, 80, 71, 81, 68, 54, 76, 59, 66, 53, 52, 57, 43, 33, 24, 32, 26, 15, 9, 0, 0, 0, 0, 0, 0, 0, 0, 0, 0, 0, 0, 0, 0, 0, 0, 0, 0, 0, 0, 0, 0, 0, 0, 0, 0, 0, 0, 0, 0, 0, 0, 0, 0, 0, 0, 0, 0, 0, 0, 0, 0, 0, 0, 0, 0, 0, 0, 0, 0, 0, 0, 0, 0, 0, 0, 0, 0, 0, 0
0, 0, 51, 0, 0, 0, 0, 1, 4, 5, 24, 6, 18, 27, 50, 30, 46, 49, 65, 70, 81, 74, 66, 70, 81, 86, 91, 88, 97, 57, 76, 80, 81, 57, 65, 68, 45, 64, 60, 45, 34, 45, 24, 28, 14, 6, 1, 0, 0, 0, 0, 0, 0, 0, 0, 0, 0, 0, 0, 0, 0, 0, 0, 0, 0, 0, 0, 0, 0, 0, 0, 0, 0, 0, 0, 0, 0, 0, 0, 0, 0, 0, 0, 0, 0, 0, 0, 0, 0, 0, 0, 0, 0, 0, 0, 0, 0, 0, 0, 0, 0, 0, 0, 0, 0, 0
0, 0, 52, 0, 0, 1, 3, 2, 4, 13, 35, 25, 21, 38, 40, 61, 72, 69, 67, 75, 96, 76, 100, 81, 98, 79, 82, 95, 90, 94, 84, 78, 74, 69, 66, 63, 65, 56, 62, 45, 43, 30, 25, 28, 22, 13, 0, 0, 0, 0, 0, 0, 0, 0, 0, 0, 0, 0, 0, 0, 0, 0, 0, 0, 0, 0, 0, 0, 0, 0, 0, 0, 0, 0, 0, 0, 0, 0, 0, 0, 0, 0, 0, 0, 0, 0, 0, 0, 0, 0, 0, 0, 0, 0, 0, 0, 0, 0, 0, 0, 0, 0, 0, 0, 0, 0
0, 0, 53, 0, 0, 2, 1, 7, 7, 14, 31, 22, 37, 58, 57, 60, 71, 67, 101, 95, 105, 108, 112, 102, 106, 107, 121, 84, 107, 86, 103, 99, 88, 70, 78, 68, 85, 96, 66, 52, 53, 28, 37, 34, 20, 7, 0, 0, 0, 0, 0, 0, 0, 0, 0, 0, 0, 0, 0, 0, 0, 0, 0, 0, 0, 0, 0, 0, 0, 0, 0, 0, 0, 0, 0, 0, 0, 0, 0, 0, 0, 0, 0, 0, 0, 0, 0, 0, 0, 0, 0, 0, 0, 0, 0, 0, 0, 0, 0, 0, 0, 0, 0, 0, 0, 0
0, 0, 54, 2, 4, 3, 2, 3, 17, 22, 39, 22, 40, 40, 70, 86, 77, 93, 97, 98, 120, 109, 124, 125, 111, 133, 111, 127, 111, 109, 108, 99, 101, 95, 74, 88, 93, 64, 71, 49, 54, 46, 35, 37, 29, 15, 0, 0, 0, 0, 0, 0, 0, 0, 0, 0, 0, 0, 0, 0, 0, 0, 0, 0, 0, 0, 0, 0, 0, 0, 0, 0, 0, 0, 0, 0, 0, 0, 0, 0, 0, 0, 0, 0, 0, 0, 0, 0, 0, 0, 0, 0, 0, 0, 0, 0, 0, 0, 0, 0, 0, 0, 0, 0, 0, 0
0, 0, 55, 3, 4, 0, 4, 11, 9, 26, 61, 31, 58, 77, 101, 86, 107, 92, 113, 144, 162, 158, 146, 146, 136, 139, 118, 146, 131, 130, 117, 128, 117, 112, 108, 129, 95, 78, 69, 64, 68, 35, 34, 28, 23, 9, 1, 0, 0, 0, 0, 0, 0, 0, 0, 0, 0, 0, 0, 0, 0, 0, 0, 0, 0, 0, 0, 0, 0, 0, 0, 0, 0, 0, 0, 0, 0, 0, 0, 0, 0, 0, 0, 0, 0, 0, 0, 0, 0, 0, 0, 0, 0, 0, 0, 0, 0, 0, 0, 0, 0, 0, 0, 0, 0, 0
0, 0, 56, 3, 2, 2, 6, 12, 26, 22, 61, 71, 70, 89, 80, 139, 121, 127, 121, 144, 180, 208, 196, 154, 174, 159, 171, 188, 148, 166, 147, 131, 124, 133, 93, 109, 88, 105, 90, 100, 80, 64, 45, 43, 37, 14, 1, 0, 0, 0, 0, 0, 0, 0, 0, 0, 0, 0, 0, 0, 0, 0, 0, 0, 0, 0, 0, 0, 0, 0, 0, 0, 0, 0, 0, 0, 0, 0, 0, 0, 0, 0, 0, 0, 0, 0, 0, 0, 0, 0, 0, 0, 0, 0, 0, 0, 0, 0, 0, 0, 0, 0, 0, 0, 0, 0
0, 0, 57, 1, 0, 9, 12, 20, 29, 34, 91, 85, 97, 109, 139, 135, 141, 184, 188, 161, 207, 204, 182, 185, 186, 217, 194, 211, 190, 153, 171, 149, 164, 130, 132, 113, 123, 119, 117, 80, 84, 67, 45, 47, 42, 15, 4, 0, 0, 0, 0, 0, 0, 0, 0, 0, 0, 0, 0, 0, 0, 0, 0, 0, 0, 0, 0, 0, 0, 0, 0, 0, 0, 0, 0, 0, 0, 0, 0, 0, 0, 0, 0, 0, 0, 0, 0, 0, 0, 0, 0, 0, 0, 0, 0, 0, 0, 0, 0, 0, 0, 0, 0, 0, 0, 0
0, 0, 58, 0, 2, 7, 17, 21, 41, 54, 74, 87, 109, 131, 173, 180, 188, 223, 227, 258, 267, 237, 237, 252, 215, 202, 242, 209, 207, 183, 202, 179, 154, 133, 152, 143, 147, 133, 102, 97, 82, 58, 55, 49, 34, 27, 0, 0, 0, 0, 0, 0, 0, 0, 0, 0, 0, 0, 0, 0, 0, 0, 0, 0, 0, 0, 0, 0, 0, 0, 0, 0, 0, 0, 0, 0, 0, 0, 0, 0, 0, 0, 0, 0, 0, 0, 0, 0, 0, 0, 0, 0, 0, 0, 0, 0, 0, 0, 0, 0, 0, 0, 0, 0, 0, 0
0, 0, 59, 3, 1, 6, 11, 18, 34, 62, 109, 98, 117, 133, 203, 193, 205, 242, 216, 220, 242, 285, 214, 228, 253, 235, 229, 233, 246, 209, 205, 187, 183, 205, 163, 161, 157, 154, 111, 115, 87, 78, 64, 54, 38, 16, 2, 0, 0, 0, 0, 0, 0, 0, 0, 0, 0, 0, 0, 0, 0, 0, 0, 0, 0, 0, 0, 0, 0, 0, 0, 0, 0, 0, 0, 0, 0, 0, 0, 0, 0, 0, 0, 0, 0, 0, 0, 0, 0, 0, 0, 0, 0, 0, 0, 0, 0, 0, 0, 0, 0, 0, 0, 0, 0, 0
0, 0, 60, 6, 3, 9, 20, 21, 40, 65, 138, 104, 113, 138, 155, 195, 206, 216, 219, 262, 250, 251, 230, 256, 241, 231, 263, 248, 211, 210, 218, 177, 187, 170, 167, 153, 122, 138, 119, 115, 87, 67, 50, 45, 42, 22, 2, 0, 0, 0, 0, 0, 0, 0, 0, 0, 0, 0, 0, 0, 0, 0, 0, 0, 0, 0, 0, 0, 0, 0, 0, 0, 0, 0, 0, 0, 0, 0, 0, 0, 0, 0, 0, 0, 0, 0, 0, 0, 0, 0, 0, 0, 0, 0, 0, 0, 0, 0, 0, 0, 0, 0, 0, 0, 0, 0
0, 0, 61, 5, 1, 10, 13, 33, 31, 51, 128, 118, 114, 138, 152, 215, 206, 208, 233, 235, 274, 250, 249, 255, 234, 226, 245, 204, 236, 228, 214, 181, 215, 158, 157, 154, 150, 135, 115, 104, 111, 88, 66, 61, 40, 20, 3, 0, 0, 0, 0, 0, 0, 0, 0, 0, 0, 0, 0, 0, 0, 0, 0, 0, 0, 0, 0, 0, 0, 0, 0, 0, 0, 0, 0, 0, 0, 0, 0, 0, 0, 0, 0, 0, 0, 0, 0, 0, 0, 0, 0, 0, 0, 0, 0, 0, 0, 0, 0, 0, 0, 0, 0, 0, 0, 0
0, 0, 62, 2, 3, 9, 13, 32, 37, 76, 106, 96, 116, 157, 190, 205, 238, 215, 231, 228, 237, 214, 255, 228, 248, 232, 196, 230, 237, 220, 199, 202, 180, 161, 172, 135, 135, 115, 99, 95, 92, 76, 63, 56, 39, 21, 4, 0, 0, 0, 0, 0, 0, 0, 0, 0, 0, 0, 0, 0, 0, 0, 0, 0, 0, 0, 0, 0, 0, 0, 0, 0, 0, 0, 0, 0, 0, 0, 0, 0, 0, 0, 0, 0, 0, 0, 0, 0, 0, 0, 0, 0, 0, 0, 0, 0, 0, 0, 0, 0, 0, 0, 0, 0, 0, 0
0, 0, 63, 4, 2, 13, 17, 20, 39, 49, 107, 83, 97, 140, 148, 229, 171, 183, 223, 241, 264, 279, 231, 242, 215, 258, 230, 241, 225, 207, 185, 186, 197, 154, 159, 132, 131, 142, 114, 129, 83, 69, 79, 66, 44, 17, 2, 0, 0, 0, 0, 0, 0, 0, 0, 0, 0, 0, 0, 0, 0, 0, 0, 0, 0, 0, 0, 0, 0, 0, 0, 0, 0, 0, 0, 0, 0, 0, 0, 0, 0, 0, 0, 0, 0, 0, 0, 0, 0, 0, 0, 0, 0, 0, 0, 0, 0, 0, 0, 0, 0, 0, 0, 0, 0, 0
0, 0, 64, 1, 3, 8, 15, 30, 42, 56, 126, 96, 123, 135, 172, 198, 201, 209, 208, 245, 220, 255, 259, 212, 243, 234, 219, 223, 225, 212, 215, 183, 158, 155, 165, 135, 154, 112, 107, 92, 89, 78, 61, 53, 46, 17, 1, 0, 0, 0, 0, 0, 0, 0, 0, 0, 0, 0, 0, 0, 0, 0, 0, 0, 0, 0, 0, 0, 0, 0, 0, 0, 0, 0, 0, 0, 0, 0, 0, 0, 0, 0, 0, 0, 0, 0, 0, 0, 0, 0, 0, 0, 0, 0, 0, 0, 0, 0, 0, 0, 0, 0, 0, 0, 0, 0
0, 0, 65, 2, 1, 11, 13, 22, 48, 50, 97, 94, 103, 122, 180, 205, 218, 219, 240, 239, 246, 266, 244, 211, 214, 218, 238, 229, 205, 239, 191, 217, 153, 195, 146, 143, 121, 152, 120, 113, 90, 74, 61, 60, 32, 23, 0, 0, 0, 0, 0, 0, 0, 0, 0, 0, 0, 0, 0, 0, 0, 0, 0, 0, 0, 0, 0, 0, 0, 0, 0, 0, 0, 0, 0, 0, 0, 0, 0, 0, 0, 0, 0, 0, 0, 0, 0, 0, 0, 0, 0, 0, 0, 0, 0, 0, 0, 0, 0, 0, 0, 0, 0, 0, 0, 0
0, 0, 66, 2, 3, 12, 18, 26, 49, 49, 130, 85, 123, 163, 168, 194, 209, 201, 235, 228, 238, 227, 255, 238, 243, 240, 230, 207, 213, 209, 204, 218, 165, 150, 178, 148, 151, 122, 110, 110, 80, 67, 78, 46, 42, 15, 1, 0, 0, 0, 0, 0, 0, 0, 0, 0, 0, 0, 0, 0, 0, 0, 0, 0, 0, 0, 0, 0, 0, 0, 0, 0, 0, 0, 0, 0, 0, 0, 0, 0, 0, 0, 0, 0, 0, 0, 0, 0, 0, 0, 0, 0, 0, 0, 0, 0, 0, 0, 0, 0, 0, 0, 0, 0, 0, 0
0, 0, 67, 0, 2, 13, 11, 31, 40, 52, 137, 92, 126, 143, 162, 202, 188, 228, 239, 240, 264, 226, 302, 269, 274, 232, 243, 223, 214, 200, 191, 172, 205, 166, 164, 154, 143, 149, 109, 92, 74, 85, 65, 62, 36, 22, 0, 0, 0, 0, 0, 0, 0, 0, 0, 0, 0, 0, 0, 0, 0, 0, 0, 0, 0, 0, 0, 0, 0, 0, 0, 0, 0, 0, 0, 0, 0, 0, 0, 0, 0, 0, 0, 0, 0, 0, 0, 0, 0, 0, 0, 0, 0, 0, 0, 0, 0, 0, 0, 0, 0, 0, 0, 0, 0, 0
0, 0, 68, 2, 4, 14, 15, 27, 39, 63, 101, 100, 118, 152, 150, 204, 188, 197, 237, 267, 234, 258, 248, 234, 279, 231, 235, 219, 222, 197, 189, 197, 189, 151, 175, 152, 117, 127, 120, 103, 102, 94, 58, 57, 42, 19, 0, 0, 0, 0, 0, 0, 0, 0, 0, 0, 0, 0, 0, 0, 0, 0, 0, 0, 0, 0, 0, 0, 0, 0, 0, 0, 0, 0, 0, 0, 0, 0, 0, 0, 0, 0, 0, 0, 0, 0, 0, 0, 0, 0, 0, 0, 0, 0, 0, 0, 0, 0, 0, 0, 0, 0, 0, 0, 0, 0
0, 0, 69, 6, 3, 12, 14, 25, 44, 50, 123, 84, 103, 159, 186, 214, 218, 207, 242, 240, 259, 235, 257, 255, 246, 248, 268, 217, 239, 201, 178, 188, 205, 180, 166, 137, 126, 119, 125, 108, 83, 71, 72, 64, 38, 13, 1, 0, 0, 0, 0, 0, 0, 0, 0, 0, 0, 0, 0, 0, 0, 0, 0, 0, 0, 0, 0, 0, 0, 0, 0, 0, 0, 0, 0, 0, 0, 0, 0, 0, 0, 0, 0, 0, 0, 0, 0, 0, 0, 0, 0, 0, 0, 0, 0, 0, 0, 0, 0, 0, 0, 0, 0, 0, 0, 0
0, 0, 70, 5, 3, 7, 12, 29, 39, 50, 109, 105, 108, 143, 185, 189, 176, 188, 242, 230, 214, 256, 226, 264, 258, 273, 185, 232, 217, 206, 212, 203, 189, 178, 184, 156, 129, 121, 107, 107, 93, 59, 65, 49, 37, 20, 3, 0, 0, 0, 0, 0, 0, 0, 0, 0, 0, 0, 0, 0, 0, 0, 0, 0, 0, 0, 0, 0, 0, 0, 0, 0, 0, 0, 0, 0, 0, 0, 0, 0, 0, 0, 0, 0, 0, 0, 0, 0, 0, 0, 0, 0, 0, 0, 0, 0, 0, 0, 0, 0, 0, 0, 0, 0, 0, 0
0, 0, 71, 6, 4, 9, 18, 21, 43, 60, 93, 85, 110, 154, 203, 194, 194, 222, 245, 242, 240, 268, 249, 240, 246, 229, 205, 244, 215, 210, 205, 202, 174, 172, 158, 134, 142, 134, 112, 101, 94, 86, 82, 61, 41, 34, 1, 0, 0, 0, 0, 0, 0, 0, 0, 0, 0, 0, 0, 0, 0, 0, 0, 0, 0, 0, 0, 0, 0, 0, 0, 0, 0, 0, 0, 0, 0, 0, 0, 0, 0, 0, 0, 0, 0, 0, 0, 0, 0, 0, 0, 0, 0, 0, 0, 0, 0, 0, 0, 0, 0, 0, 0, 0, 0, 0
0, 0, 72, 2, 3, 12, 12, 28, 43, 48, 102, 87, 125, 157, 159, 223, 213, 239, 225, 200, 288, 254, 220, 231, 225, 256, 251, 272, 207, 219, 207, 190, 180, 166, 154, 168, 100, 107, 99, 105, 87, 94, 61, 71, 29, 24, 0, 0, 0, 0, 0, 0, 0, 0, 0, 0, 0, 0, 0, 0, 0, 0, 0, 0, 0, 0, 0, 0, 0, 0, 0, 0, 0, 0, 0, 0, 0, 0, 0, 0, 0, 0, 0, 0, 0, 0, 0, 0, 0, 0, 0, 0, 0, 0, 0, 0, 0, 0, 0, 0, 0, 0, 0, 0, 0, 0
0, 0, 73, 2, 1, 5, 16, 21, 43, 58, 120, 102, 127, 162, 172, 235, 204, 231, 210, 228, 248, 278, 238, 258, 250, 234, 237, 228, 201, 220, 187, 182, 176, 163, 145, 142, 119, 118, 104, 110, 95, 81, 68, 70, 37, 20, 0, 0, 0, 0, 0, 0, 0, 0, 0, 0, 0, 0, 0, 0, 0, 0, 0, 0, 0, 0, 0, 0, 0, 0, 0, 0, 0, 0, 0, 0, 0, 0, 0, 0, 0, 0, 0, 0, 0, 0, 0, 0, 0, 0, 0, 0, 0, 0, 0, 0, 0, 0, 0, 0, 0, 0, 0, 0, 0, 0
0, 0, 74, 3, 6, 10, 8, 24, 38, 61, 130, 90, 125, 142, 190, 186, 193, 219, 226, 265, 238, 237, 255, 249, 236, 248, 218, 200, 192, 202, 207, 188, 144, 152, 156, 147, 144, 122, 105, 122, 79, 70, 58, 52, 47, 22, 0, 0, 0, 0, 0, 0, 0, 0, 0, 0, 0, 0, 0, 0, 0, 0, 0, 0, 0, 0, 0, 0, 0, 0, 0, 0, 0, 0, 0, 0, 0, 0, 0, 0, 0, 0, 0, 0, 0, 0, 0, 0, 0, 0, 0, 0, 0, 0, 0, 0, 0, 0, 0, 0, 0, 0, 0, 0, 0, 0
0, 0, 75, 9, 3, 7, 13, 21, 31, 54, 117, 112, 109, 138, 173, 206, 192, 204, 218, 213, 223, 210, 236, 246, 230, 223, 230, 240, 212, 215, 210, 189, 167, 168, 170, 187, 125, 120, 111, 110, 109, 81, 72, 51, 35, 22, 1, 0, 0, 0, 0, 0, 0, 0, 0, 0, 0, 0, 0, 0, 0, 0, 0, 0, 0, 0, 0, 0, 0, 0, 0, 0, 0, 0, 0, 0, 0, 0, 0, 0, 0, 0, 0, 0, 0, 0, 0, 0, 0, 0, 0, 0, 0, 0, 0, 0, 0, 0, 0, 0, 0, 0, 0, 0, 0, 0
0, 0, 76, 7, 2, 2, 19, 25, 39, 63, 136, 115, 101, 136, 158, 211, 189, 247, 243, 265, 242, 235, 253, 263, 233, 232, 219, 223, 224, 196, 195, 189, 195, 162, 150, 166, 111, 132, 120, 100, 98, 86, 66, 43, 52, 23, 1, 0, 0, 0, 0, 0, 0, 0, 0, 0, 0, 0, 0, 0, 0, 0, 0, 0, 0, 0, 0, 0, 0, 0, 0, 0, 0, 0, 0, 0, 0, 0, 0, 0, 0, 0, 0, 0, 0, 0, 0, 0, 0, 0, 0, 0, 0, 0, 0, 0, 0, 0, 0, 0, 0, 0, 0, 0, 0, 0
0, 0, 77, 5, 4, 6, 19, 21, 38, 48, 121, 78, 114, 161, 183, 211, 201, 212, 229, 236, 266, 261, 261, 237, 219, 225, 233, 225, 218, 219, 204, 210, 197, 191, 152, 145, 120, 107, 109, 79, 90, 79, 70, 60, 43, 19, 1, 0, 0, 0, 0, 0, 0, 0, 0, 0, 0, 0, 0, 0, 0, 0, 0, 0, 0, 0, 0, 0, 0, 0, 0, 0, 0, 0, 0, 0, 0, 0, 0, 0, 0, 0, 0, 0, 0, 0, 0, 0, 0, 0, 0, 0, 0, 0, 0, 0, 0, 0, 0, 0, 0, 0, 0, 0, 0, 0
