# TOPAS Version: 3.1.p3
# Parameter File: REDLEN_small_phantom_mc_basic_3cm.txt
# Results for scorer PhantomDose
# Scored on surface: CdTeCrystal1/YPlusSurface
# X in 100 bins of 0.03332 cm
# Y in 1 bin  of 0.4 cm
# Z in 100 bins of 0.0375 cm
# SurfaceTrackCount : Sum   
# Binned by incident track energy in 100 bins of 0.00104 MeV from 0.016 MeV to 0.12 MeV
# First bin is underflow, next to last bin is overflow, last bin is for case of no incident track.
0, 0, 0, 0, 0, 0, 0, 0, 0, 0, 0, 0, 2, 2, 0, 1, 3, 4, 5, 6, 2, 4, 2, 1, 5, 2, 3, 0, 1, 1, 3, 0, 2, 1, 4, 1, 5, 1, 0, 2, 2, 1, 0, 1, 1, 0, 0, 0, 0, 0, 0, 0, 0, 0, 0, 0, 0, 0, 0, 0, 0, 0, 0, 0, 0, 0, 0, 0, 0, 0, 0, 0, 0, 0, 0, 0, 0, 0, 0, 0, 0, 0, 0, 0, 0, 0, 0, 0, 0, 0, 0, 0, 0, 0, 0, 0, 0, 0, 0, 0, 0, 0, 0, 0, 0, 0
0, 0, 1, 0, 0, 0, 0, 0, 0, 0, 1, 0, 0, 0, 2, 1, 0, 0, 1, 3, 0, 3, 2, 3, 4, 1, 3, 0, 1, 1, 2, 1, 0, 2, 1, 1, 2, 0, 1, 0, 3, 0, 0, 2, 0, 0, 0, 0, 0, 0, 0, 0, 0, 0, 0, 0, 0, 0, 0, 0, 0, 0, 0, 0, 0, 0, 0, 0, 0, 0, 0, 0, 0, 0, 0, 0, 0, 0, 0, 0, 0, 0, 0, 0, 0, 0, 0, 0, 0, 0, 0, 0, 0, 0, 0, 0, 0, 0, 0, 0, 0, 0, 0, 0, 0, 0
0, 0, 2, 1, 0, 0, 0, 0, 2, 0, 0, 2, 1, 2, 0, 0, 1, 1, 4, 0, 3, 2, 2, 2, 4, 2, 2, 2, 4, 2, 5, 8, 1, 2, 1, 2, 2, 1, 2, 1, 0, 0, 1, 1, 0, 0, 0, 0, 0, 0, 0, 0, 0, 0, 0, 0, 0, 0, 0, 0, 0, 0, 0, 0, 0, 0, 0, 0, 0, 0, 0, 0, 0, 0, 0, 0, 0, 0, 0, 0, 0, 0, 0, 0, 0, 0, 0, 0, 0, 0, 0, 0, 0, 0, 0, 0, 0, 0, 0, 0, 0, 0, 0, 0, 0, 0
0, 0, 3, 0, 0, 4, 0, 0, 0, 0, 0, 1, 0, 0, 0, 2, 1, 4, 4, 1, 2, 0, 0, 1, 2, 5, 3, 4, 5, 5, 0, 5, 4, 3, 3, 2, 2, 1, 2, 1, 1, 0, 2, 0, 0, 0, 0, 0, 0, 0, 0, 0, 0, 0, 0, 0, 0, 0, 0, 0, 0, 0, 0, 0, 0, 0, 0, 0, 0, 0, 0, 0, 0, 0, 0, 0, 0, 0, 0, 0, 0, 0, 0, 0, 0, 0, 0, 0, 0, 0, 0, 0, 0, 0, 0, 0, 0, 0, 0, 0, 0, 0, 0, 0, 0, 0
0, 0, 4, 2, 0, 0, 0, 0, 0, 1, 4, 3, 0, 1, 0, 4, 1, 2, 2, 2, 1, 2, 10, 4, 4, 2, 0, 3, 2, 6, 5, 2, 3, 1, 5, 1, 1, 0, 2, 1, 2, 2, 2, 0, 1, 0, 0, 0, 0, 0, 0, 0, 0, 0, 0, 0, 0, 0, 0, 0, 0, 0, 0, 0, 0, 0, 0, 0, 0, 0, 0, 0, 0, 0, 0, 0, 0, 0, 0, 0, 0, 0, 0, 0, 0, 0, 0, 0, 0, 0, 0, 0, 0, 0, 0, 0, 0, 0, 0, 0, 0, 0, 0, 0, 0, 0
0, 0, 5, 2, 3, 4, 8, 8, 19, 26, 39, 31, 45, 74, 81, 86, 66, 105, 105, 110, 133, 102, 105, 99, 103, 98, 93, 93, 109, 76, 82, 90, 82, 76, 69, 57, 52, 58, 55, 39, 30, 31, 30, 17, 18, 14, 0, 0, 0, 0, 0, 0, 0, 0, 0, 0, 0, 0, 0, 0, 0, 0, 0, 0, 0, 0, 0, 0, 0, 0, 0, 0, 0, 0, 0, 0, 0, 0, 0, 0, 0, 0, 0, 0, 0, 0, 0, 0, 0, 0, 0, 0, 0, 0, 0, 0, 0, 0, 0, 0, 0, 0, 0, 0, 0, 0
0, 0, 6, 0, 3, 5, 14, 17, 64, 57, 119, 93, 130, 134, 180, 205, 184, 187, 246, 227, 261, 241, 255, 247, 256, 217, 254, 221, 210, 187, 191, 181, 186, 162, 149, 156, 115, 119, 113, 111, 81, 98, 65, 50, 39, 23, 2, 0, 0, 0, 0, 0, 0, 0, 0, 0, 0, 0, 0, 0, 0, 0, 0, 0, 0, 0, 0, 0, 0, 0, 0, 0, 0, 0, 0, 0, 0, 0, 0, 0, 0, 0, 0, 0, 0, 0, 0, 0, 0, 0, 0, 0, 0, 0, 0, 0, 0, 0, 0, 0, 0, 0, 0, 0, 0, 0
0, 0, 7, 0, 2, 7, 18, 28, 41, 53, 131, 88, 136, 145, 179, 200, 226, 227, 243, 240, 248, 212, 258, 269, 265, 217, 229, 259, 198, 207, 185, 191, 189, 148, 153, 179, 146, 120, 122, 99, 97, 74, 91, 48, 56, 25, 1, 0, 0, 0, 0, 0, 0, 0, 0, 0, 0, 0, 0, 0, 0, 0, 0, 0, 0, 0, 0, 0, 0, 0, 0, 0, 0, 0, 0, 0, 0, 0, 0, 0, 0, 0, 0, 0, 0, 0, 0, 0, 0, 0, 0, 0, 0, 0, 0, 0, 0, 0, 0, 0, 0, 0, 0, 0, 0, 0
0, 0, 8, 3, 0, 6, 16, 20, 41, 59, 115, 96, 110, 128, 173, 219, 202, 209, 222, 239, 239, 253, 243, 234, 235, 243, 233, 228, 234, 216, 217, 202, 159, 156, 150, 160, 127, 110, 113, 116, 91, 76, 71, 43, 40, 16, 0, 0, 0, 0, 0, 0, 0, 0, 0, 0, 0, 0, 0, 0, 0, 0, 0, 0, 0, 0, 0, 0, 0, 0, 0, 0, 0, 0, 0, 0, 0, 0, 0, 0, 0, 0, 0, 0, 0, 0, 0, 0, 0, 0, 0, 0, 0, 0, 0, 0, 0, 0, 0, 0, 0, 0, 0, 0, 0, 0
0, 0, 9, 0, 3, 9, 19, 28, 28, 57, 116, 91, 144, 146, 191, 199, 206, 210, 237, 232, 236, 248, 266, 257, 249, 220, 209, 230, 212, 213, 217, 179, 184, 181, 176, 129, 145, 110, 124, 111, 102, 77, 63, 64, 41, 23, 1, 0, 0, 0, 0, 0, 0, 0, 0, 0, 0, 0, 0, 0, 0, 0, 0, 0, 0, 0, 0, 0, 0, 0, 0, 0, 0, 0, 0, 0, 0, 0, 0, 0, 0, 0, 0, 0, 0, 0, 0, 0, 0, 0, 0, 0, 0, 0, 0, 0, 0, 0, 0, 0, 0, 0, 0, 0, 0, 0
0, 0, 10, 1, 4, 11, 8, 26, 45, 47, 125, 95, 124, 161, 180, 191, 224, 216, 246, 229, 272, 238, 230, 224, 242, 219, 236, 258, 205, 189, 210, 196, 200, 201, 158, 133, 146, 119, 114, 85, 89, 77, 73, 65, 38, 19, 1, 0, 0, 0, 0, 0, 0, 0, 0, 0, 0, 0, 0, 0, 0, 0, 0, 0, 0, 0, 0, 0, 0, 0, 0, 0, 0, 0, 0, 0, 0, 0, 0, 0, 0, 0, 0, 0, 0, 0, 0, 0, 0, 0, 0, 0, 0, 0, 0, 0, 0, 0, 0, 0, 0, 0, 0, 0, 0, 0
0, 0, 11, 6, 4, 8, 10, 31, 43, 51, 131, 94, 111, 135, 176, 207, 172, 228, 250, 243, 242, 214, 243, 232, 238, 220, 248, 236, 229, 187, 206, 195, 178, 167, 169, 133, 142, 127, 130, 95, 69, 64, 72, 63, 30, 22, 1, 0, 0, 0, 0, 0, 0, 0, 0, 0, 0, 0, 0, 0, 0, 0, 0, 0, 0, 0, 0, 0, 0, 0, 0, 0, 0, 0, 0, 0, 0, 0, 0, 0, 0, 0, 0, 0, 0, 0, 0, 0, 0, 0, 0, 0, 0, 0, 0, 0, 0, 0, 0, 0, 0, 0, 0, 0, 0, 0
0, 0, 12, 3, 4, 8, 13, 28, 44, 55, 107, 94, 122, 135, 150, 187, 225, 227, 255, 273, 260, 236, 267, 276, 252, 241, 232, 238, 220, 210, 200, 186, 178, 168, 140, 152, 150, 129, 134, 119, 91, 94, 66, 45, 46, 17, 1, 0, 0, 0, 0, 0, 0, 0, 0, 0, 0, 0, 0, 0, 0, 0, 0, 0, 0, 0, 0, 0, 0, 0, 0, 0, 0, 0, 0, 0, 0, 0, 0, 0, 0, 0, 0, 0, 0, 0, 0, 0, 0, 0, 0, 0, 0, 0, 0, 0, 0, 0, 0, 0, 0, 0, 0, 0, 0, 0
0, 0, 13, 4, 7, 8, 12, 25, 40, 63, 106, 94, 127, 150, 163, 174, 209, 220, 224, 219, 271, 219, 230, 240, 264, 183, 227, 218, 229, 201, 182, 183, 181, 188, 167, 144, 149, 124, 125, 98, 82, 64, 61, 60, 49, 20, 3, 0, 0, 0, 0, 0, 0, 0, 0, 0, 0, 0, 0, 0, 0, 0, 0, 0, 0, 0, 0, 0, 0, 0, 0, 0, 0, 0, 0, 0, 0, 0, 0, 0, 0, 0, 0, 0, 0, 0, 0, 0, 0, 0, 0, 0, 0, 0, 0, 0, 0, 0, 0, 0, 0, 0, 0, 0, 0, 0
0, 0, 14, 2, 1, 5, 17, 37, 41, 54, 107, 97, 107, 142, 188, 185, 186, 201, 212, 236, 256, 223, 255, 226, 240, 246, 242, 247, 227, 189, 208, 197, 171, 167, 142, 141, 132, 140, 102, 115, 110, 78, 94, 46, 48, 21, 5, 0, 0, 0, 0, 0, 0, 0, 0, 0, 0, 0, 0, 0, 0, 0, 0, 0, 0, 0, 0, 0, 0, 0, 0, 0, 0, 0, 0, 0, 0, 0, 0, 0, 0, 0, 0, 0, 0, 0, 0, 0, 0, 0, 0, 0, 0, 0, 0, 0, 0, 0, 0, 0, 0, 0, 0, 0, 0, 0
0, 0, 15, 0, 4, 6, 19, 30, 43, 52, 121, 87, 104, 151, 157, 199, 213, 222, 238, 246, 232, 250, 283, 252, 243, 249, 241, 248, 189, 196, 202, 186, 189, 158, 173, 129, 138, 126, 117, 112, 93, 76, 72, 58, 35, 20, 2, 0, 0, 0, 0, 0, 0, 0, 0, 0, 0, 0, 0, 0, 0, 0, 0, 0, 0, 0, 0, 0, 0, 0, 0, 0, 0, 0, 0, 0, 0, 0, 0, 0, 0, 0, 0, 0, 0, 0, 0, 0, 0, 0, 0, 0, 0, 0, 0, 0, 0, 0, 0, 0, 0, 0, 0, 0, 0, 0
0, 0, 16, 2, 8, 4, 19, 32, 55, 51, 134, 98, 97, 146, 159, 198, 220, 228, 207, 241, 247, 250, 265, 250, 252, 254, 223, 262, 222, 216, 212, 195, 151, 185, 147, 135, 130, 126, 114, 97, 86, 89, 78, 44, 48, 21, 1, 0, 0, 0, 0, 0, 0, 0, 0, 0, 0, 0, 0, 0, 0, 0, 0, 0, 0, 0, 0, 0, 0, 0, 0, 0, 0, 0, 0, 0, 0, 0, 0, 0, 0, 0, 0, 0, 0, 0, 0, 0, 0, 0, 0, 0, 0, 0, 0, 0, 0, 0, 0, 0, 0, 0, 0, 0, 0, 0
0, 0, 17, 2, 5, 5, 15, 26, 39, 72, 121, 97, 113, 149, 179, 177, 204, 238, 213, 262, 268, 256, 246, 244, 223, 221, 265, 220, 227, 184, 159, 188, 178, 179, 138, 151, 107, 136, 108, 104, 96, 76, 65, 37, 43, 18, 1, 0, 0, 0, 0, 0, 0, 0, 0, 0, 0, 0, 0, 0, 0, 0, 0, 0, 0, 0, 0, 0, 0, 0, 0, 0, 0, 0, 0, 0, 0, 0, 0, 0, 0, 0, 0, 0, 0, 0, 0, 0, 0, 0, 0, 0, 0, 0, 0, 0, 0, 0, 0, 0, 0, 0, 0, 0, 0, 0
0, 0, 18, 3, 4, 9, 13, 38, 37, 71, 108, 99, 104, 143, 173, 192, 210, 206, 217, 243, 271, 244, 257, 248, 223, 225, 263, 209, 235, 188, 208, 182, 180, 163, 143, 130, 154, 115, 118, 103, 87, 98, 65, 58, 44, 20, 1, 0, 0, 0, 0, 0, 0, 0, 0, 0, 0, 0, 0, 0, 0, 0, 0, 0, 0, 0, 0, 0, 0, 0, 0, 0, 0, 0, 0, 0, 0, 0, 0, 0, 0, 0, 0, 0, 0, 0, 0, 0, 0, 0, 0, 0, 0, 0, 0, 0, 0, 0, 0, 0, 0, 0, 0, 0, 0, 0
0, 0, 19, 0, 3, 5, 16, 36, 35, 53, 120, 102, 112, 138, 170, 198, 211, 220, 223, 219, 270, 275, 289, 264, 220, 244, 222, 216, 204, 184, 179, 216, 179, 203, 168, 134, 131, 135, 123, 103, 97, 71, 71, 56, 55, 19, 0, 0, 0, 0, 0, 0, 0, 0, 0, 0, 0, 0, 0, 0, 0, 0, 0, 0, 0, 0, 0, 0, 0, 0, 0, 0, 0, 0, 0, 0, 0, 0, 0, 0, 0, 0, 0, 0, 0, 0, 0, 0, 0, 0, 0, 0, 0, 0, 0, 0, 0, 0, 0, 0, 0, 0, 0, 0, 0, 0
0, 0, 20, 0, 5, 9, 13, 24, 44, 57, 116, 92, 113, 122, 177, 212, 196, 190, 215, 233, 237, 279, 264, 229, 235, 238, 198, 213, 242, 194, 211, 196, 175, 188, 131, 129, 142, 118, 136, 94, 97, 78, 70, 46, 44, 18, 0, 0, 0, 0, 0, 0, 0, 0, 0, 0, 0, 0, 0, 0, 0, 0, 0, 0, 0, 0, 0, 0, 0, 0, 0, 0, 0, 0, 0, 0, 0, 0, 0, 0, 0, 0, 0, 0, 0, 0, 0, 0, 0, 0, 0, 0, 0, 0, 0, 0, 0, 0, 0, 0, 0, 0, 0, 0, 0, 0
0, 0, 21, 3, 3, 10, 25, 27, 51, 61, 106, 83, 110, 141, 183, 196, 190, 203, 208, 228, 240, 233, 252, 248, 260, 263, 225, 231, 208, 210, 220, 212, 177, 148, 172, 127, 120, 121, 76, 107, 90, 64, 56, 52, 34, 17, 2, 0, 0, 0, 0, 0, 0, 0, 0, 0, 0, 0, 0, 0, 0, 0, 0, 0, 0, 0, 0, 0, 0, 0, 0, 0, 0, 0, 0, 0, 0, 0, 0, 0, 0, 0, 0, 0, 0, 0, 0, 0, 0, 0, 0, 0, 0, 0, 0, 0, 0, 0, 0, 0, 0, 0, 0, 0, 0, 0
0, 0, 22, 4, 4, 13, 18, 30, 56, 66, 124, 90, 138, 115, 176, 183, 207, 223, 238, 226, 240, 244, 265, 230, 261, 242, 217, 238, 204, 238, 224, 154, 189, 162, 165, 136, 140, 132, 111, 111, 90, 84, 72, 47, 30, 22, 0, 0, 0, 0, 0, 0, 0, 0, 0, 0, 0, 0, 0, 0, 0, 0, 0, 0, 0, 0, 0, 0, 0, 0, 0, 0, 0, 0, 0, 0, 0, 0, 0, 0, 0, 0, 0, 0, 0, 0, 0, 0, 0, 0, 0, 0, 0, 0, 0, 0, 0, 0, 0, 0, 0, 0, 0, 0, 0, 0
0, 0, 23, 2, 3, 10, 14, 19, 40, 47, 120, 81, 107, 139, 139, 189, 172, 200, 239, 256, 277, 254, 254, 252, 237, 253, 233, 232, 180, 193, 190, 239, 158, 174, 149, 161, 120, 120, 125, 116, 100, 83, 73, 48, 38, 24, 1, 0, 0, 0, 0, 0, 0, 0, 0, 0, 0, 0, 0, 0, 0, 0, 0, 0, 0, 0, 0, 0, 0, 0, 0, 0, 0, 0, 0, 0, 0, 0, 0, 0, 0, 0, 0, 0, 0, 0, 0, 0, 0, 0, 0, 0, 0, 0, 0, 0, 0, 0, 0, 0, 0, 0, 0, 0, 0, 0
0, 0, 24, 3, 5, 7, 11, 21, 28, 67, 121, 104, 129, 160, 162, 208, 211, 196, 224, 234, 265, 273, 245, 224, 249, 256, 246, 212, 238, 226, 192, 170, 185, 219, 165, 144, 145, 143, 119, 102, 106, 85, 70, 54, 41, 14, 0, 0, 0, 0, 0, 0, 0, 0, 0, 0, 0, 0, 0, 0, 0, 0, 0, 0, 0, 0, 0, 0, 0, 0, 0, 0, 0, 0, 0, 0, 0, 0, 0, 0, 0, 0, 0, 0, 0, 0, 0, 0, 0, 0, 0, 0, 0, 0, 0, 0, 0, 0, 0, 0, 0, 0, 0, 0, 0, 0
0, 0, 25, 2, 1, 7, 10, 32, 41, 65, 126, 105, 118, 140, 166, 192, 206, 194, 219, 222, 246, 265, 240, 233, 229, 268, 253, 214, 221, 190, 209, 165, 192, 159, 131, 140, 149, 124, 117, 108, 94, 81, 71, 56, 35, 27, 3, 0, 0, 0, 0, 0, 0, 0, 0, 0, 0, 0, 0, 0, 0, 0, 0, 0, 0, 0, 0, 0, 0, 0, 0, 0, 0, 0, 0, 0, 0, 0, 0, 0, 0, 0, 0, 0, 0, 0, 0, 0, 0, 0, 0, 0, 0, 0, 0, 0, 0, 0, 0, 0, 0, 0, 0, 0, 0, 0
0, 0, 26, 3, 1, 3, 24, 23, 35, 59, 128, 101, 108, 149, 175, 202, 212, 217, 224, 256, 235, 230, 255, 242, 255, 238, 248, 268, 213, 208, 196, 202, 174, 161, 181, 165, 130, 117, 116, 113, 106, 84, 47, 61, 43, 26, 2, 0, 0, 0, 0, 0, 0, 0, 0, 0, 0, 0, 0, 0, 0, 0, 0, 0, 0, 0, 0, 0, 0, 0, 0, 0, 0, 0, 0, 0, 0, 0, 0, 0, 0, 0, 0, 0, 0, 0, 0, 0, 0, 0, 0, 0, 0, 0, 0, 0, 0, 0, 0, 0, 0, 0, 0, 0, 0, 0
0, 0, 27, 0, 3, 8, 14, 25, 49, 61, 114, 93, 103, 134, 192, 185, 211, 228, 227, 264, 233, 259, 259, 216, 232, 232, 243, 215, 221, 193, 203, 189, 187, 209, 183, 151, 147, 119, 119, 94, 116, 84, 53, 43, 38, 27, 2, 0, 0, 0, 0, 0, 0, 0, 0, 0, 0, 0, 0, 0, 0, 0, 0, 0, 0, 0, 0, 0, 0, 0, 0, 0, 0, 0, 0, 0, 0, 0, 0, 0, 0, 0, 0, 0, 0, 0, 0, 0, 0, 0, 0, 0, 0, 0, 0, 0, 0, 0, 0, 0, 0, 0, 0, 0, 0, 0
0, 0, 28, 2, 4, 8, 18, 26, 33, 50, 103, 109, 117, 148, 196, 209, 210, 243, 211, 247, 271, 259, 242, 260, 247, 234, 223, 237, 209, 235, 178, 190, 175, 161, 175, 143, 149, 120, 93, 103, 103, 95, 57, 47, 41, 22, 1, 0, 0, 0, 0, 0, 0, 0, 0, 0, 0, 0, 0, 0, 0, 0, 0, 0, 0, 0, 0, 0, 0, 0, 0, 0, 0, 0, 0, 0, 0, 0, 0, 0, 0, 0, 0, 0, 0, 0, 0, 0, 0, 0, 0, 0, 0, 0, 0, 0, 0, 0, 0, 0, 0, 0, 0, 0, 0, 0
0, 0, 29, 1, 1, 9, 12, 28, 38, 55, 109, 97, 115, 151, 171, 198, 186, 181, 250, 248, 242, 256, 227, 265, 241, 265, 249, 260, 223, 201, 190, 188, 201, 171, 158, 159, 141, 124, 126, 106, 97, 68, 70, 50, 38, 18, 4, 0, 0, 0, 0, 0, 0, 0, 0, 0, 0, 0, 0, 0, 0, 0, 0, 0, 0, 0, 0, 0, 0, 0, 0, 0, 0, 0, 0, 0, 0, 0, 0, 0, 0, 0, 0, 0, 0, 0, 0, 0, 0, 0, 0, 0, 0, 0, 0, 0, 0, 0, 0, 0, 0, 0, 0, 0, 0, 0
0, 0, 30, 2, 4, 11, 10, 30, 43, 51, 113, 109, 113, 144, 171, 205, 202, 221, 233, 220, 216, 246, 217, 248, 231, 231, 222, 224, 201, 203, 200, 171, 153, 180, 144, 155, 127, 120, 110, 121, 86, 71, 85, 56, 35, 13, 0, 0, 0, 0, 0, 0, 0, 0, 0, 0, 0, 0, 0, 0, 0, 0, 0, 0, 0, 0, 0, 0, 0, 0, 0, 0, 0, 0, 0, 0, 0, 0, 0, 0, 0, 0, 0, 0, 0, 0, 0, 0, 0, 0, 0, 0, 0, 0, 0, 0, 0, 0, 0, 0, 0, 0, 0, 0, 0, 0
0, 0, 31, 1, 4, 2, 16, 26, 45, 58, 130, 89, 118, 140, 166, 241, 204, 212, 240, 232, 235, 225, 252, 248, 236, 237, 255, 238, 205, 206, 194, 184, 205, 158, 166, 161, 131, 123, 115, 103, 107, 96, 58, 51, 37, 24, 0, 0, 0, 0, 0, 0, 0, 0, 0, 0, 0, 0, 0, 0, 0, 0, 0, 0, 0, 0, 0, 0, 0, 0, 0, 0, 0, 0, 0, 0, 0, 0, 0, 0, 0, 0, 0, 0, 0, 0, 0, 0, 0, 0, 0, 0, 0, 0, 0, 0, 0, 0, 0, 0, 0, 0, 0, 0, 0, 0
0, 0, 32, 4, 5, 9, 8, 22, 42, 59, 107, 92, 116, 143, 165, 192, 185, 221, 210, 225, 255, 252, 256, 258, 217, 247, 274, 227, 219, 194, 191, 174, 189, 175, 175, 160, 144, 104, 125, 116, 83, 86, 74, 48, 39, 24, 1, 0, 0, 0, 0, 0, 0, 0, 0, 0, 0, 0, 0, 0, 0, 0, 0, 0, 0, 0, 0, 0, 0, 0, 0, 0, 0, 0, 0, 0, 0, 0, 0, 0, 0, 0, 0, 0, 0, 0, 0, 0, 0, 0, 0, 0, 0, 0, 0, 0, 0, 0, 0, 0, 0, 0, 0, 0, 0, 0
0, 0, 33, 3, 2, 8, 21, 33, 41, 54, 127, 96, 123, 130, 166, 206, 192, 217, 230, 205, 246, 224, 261, 250, 252, 255, 203, 229, 213, 195, 199, 171, 161, 168, 177, 152, 122, 125, 119, 94, 93, 78, 53, 55, 36, 18, 0, 0, 0, 0, 0, 0, 0, 0, 0, 0, 0, 0, 0, 0, 0, 0, 0, 0, 0, 0, 0, 0, 0, 0, 0, 0, 0, 0, 0, 0, 0, 0, 0, 0, 0, 0, 0, 0, 0, 0, 0, 0, 0, 0, 0, 0, 0, 0, 0, 0, 0, 0, 0, 0, 0, 0, 0, 0, 0, 0
0, 0, 34, 1, 2, 8, 18, 30, 44, 57, 119, 81, 111, 135, 184, 238, 182, 225, 216, 237, 242, 254, 245, 218, 264, 251, 260, 228, 244, 204, 188, 196, 187, 152, 156, 145, 152, 110, 113, 112, 88, 72, 64, 49, 47, 20, 1, 0, 0, 0, 0, 0, 0, 0, 0, 0, 0, 0, 0, 0, 0, 0, 0, 0, 0, 0, 0, 0, 0, 0, 0, 0, 0, 0, 0, 0, 0, 0, 0, 0, 0, 0, 0, 0, 0, 0, 0, 0, 0, 0, 0, 0, 0, 0, 0, 0, 0, 0, 0, 0, 0, 0, 0, 0, 0, 0
0, 0, 35, 2, 2, 12, 18, 23, 38, 63, 118, 88, 106, 144, 165, 190, 195, 202, 260, 262, 243, 244, 230, 254, 214, 246, 238, 233, 225, 223, 206, 202, 213, 162, 157, 155, 132, 134, 144, 101, 84, 78, 69, 50, 39, 27, 1, 0, 0, 0, 0, 0, 0, 0, 0, 0, 0, 0, 0, 0, 0, 0, 0, 0, 0, 0, 0, 0, 0, 0, 0, 0, 0, 0, 0, 0, 0, 0, 0, 0, 0, 0, 0, 0, 0, 0, 0, 0, 0, 0, 0, 0, 0, 0, 0, 0, 0, 0, 0, 0, 0, 0, 0, 0, 0, 0
0, 0, 36, 3, 4, 13, 19, 24, 44, 53, 91, 100, 107, 137, 163, 204, 210, 212, 227, 254, 247, 256, 243, 228, 251, 235, 232, 208, 206, 187, 200, 190, 182, 191, 157, 174, 123, 137, 112, 95, 89, 85, 72, 57, 44, 20, 1, 0, 0, 0, 0, 0, 0, 0, 0, 0, 0, 0, 0, 0, 0, 0, 0, 0, 0, 0, 0, 0, 0, 0, 0, 0, 0, 0, 0, 0, 0, 0, 0, 0, 0, 0, 0, 0, 0, 0, 0, 0, 0, 0, 0, 0, 0, 0, 0, 0, 0, 0, 0, 0, 0, 0, 0, 0, 0, 0
0, 0, 37, 4, 5, 5, 15, 23, 42, 65, 124, 102, 112, 134, 183, 195, 211, 189, 206, 227, 236, 260, 274, 262, 243, 247, 246, 237, 189, 229, 190, 181, 196, 194, 156, 147, 128, 143, 108, 107, 85, 71, 51, 49, 36, 26, 2, 0, 0, 0, 0, 0, 0, 0, 0, 0, 0, 0, 0, 0, 0, 0, 0, 0, 0, 0, 0, 0, 0, 0, 0, 0, 0, 0, 0, 0, 0, 0, 0, 0, 0, 0, 0, 0, 0, 0, 0, 0, 0, 0, 0, 0, 0, 0, 0, 0, 0, 0, 0, 0, 0, 0, 0, 0, 0, 0
0, 0, 38, 1, 3, 5, 15, 26, 37, 49, 132, 94, 126, 139, 157, 202, 223, 179, 241, 249, 238, 287, 261, 244, 251, 218, 239, 235, 204, 183, 204, 182, 183, 165, 152, 139, 114, 113, 119, 96, 89, 75, 62, 52, 43, 23, 0, 0, 0, 0, 0, 0, 0, 0, 0, 0, 0, 0, 0, 0, 0, 0, 0, 0, 0, 0, 0, 0, 0, 0, 0, 0, 0, 0, 0, 0, 0, 0, 0, 0, 0, 0, 0, 0, 0, 0, 0, 0, 0, 0, 0, 0, 0, 0, 0, 0, 0, 0, 0, 0, 0, 0, 0, 0, 0, 0
0, 0, 39, 2, 6, 6, 8, 25, 37, 57, 99, 92, 131, 144, 183, 203, 180, 203, 253, 205, 238, 264, 248, 256, 248, 235, 225, 230, 233, 208, 181, 213, 181, 164, 161, 155, 140, 135, 111, 113, 97, 71, 63, 54, 31, 18, 1, 0, 0, 0, 0, 0, 0, 0, 0, 0, 0, 0, 0, 0, 0, 0, 0, 0, 0, 0, 0, 0, 0, 0, 0, 0, 0, 0, 0, 0, 0, 0, 0, 0, 0, 0, 0, 0, 0, 0, 0, 0, 0, 0, 0, 0, 0, 0, 0, 0, 0, 0, 0, 0, 0, 0, 0, 0, 0, 0
0, 0, 40, 2, 7, 11, 16, 21, 40, 78, 99, 74, 93, 158, 164, 222, 212, 227, 216, 227, 272, 212, 274, 247, 264, 239, 244, 210, 238, 212, 203, 174, 180, 161, 159, 157, 157, 132, 108, 97, 87, 79, 72, 56, 46, 23, 5, 0, 0, 0, 0, 0, 0, 0, 0, 0, 0, 0, 0, 0, 0, 0, 0, 0, 0, 0, 0, 0, 0, 0, 0, 0, 0, 0, 0, 0, 0, 0, 0, 0, 0, 0, 0, 0, 0, 0, 0, 0, 0, 0, 0, 0, 0, 0, 0, 0, 0, 0, 0, 0, 0, 0, 0, 0, 0, 0
0, 0, 41, 0, 3, 9, 10, 28, 31, 48, 86, 84, 114, 136, 146, 183, 177, 193, 198, 224, 215, 241, 216, 247, 240, 227, 202, 207, 187, 192, 200, 181, 190, 153, 147, 143, 122, 98, 122, 93, 79, 90, 68, 34, 40, 25, 2, 0, 0, 0, 0, 0, 0, 0, 0, 0, 0, 0, 0, 0, 0, 0, 0, 0, 0, 0, 0, 0, 0, 0, 0, 0, 0, 0, 0, 0, 0, 0, 0, 0, 0, 0, 0, 0, 0, 0, 0, 0, 0, 0, 0, 0, 0, 0, 0, 0, 0, 0, 0, 0, 0, 0, 0, 0, 0, 0
0, 0, 42, 0, 2, 6, 8, 25, 27, 32, 81, 74, 84, 115, 126, 159, 141, 139, 161, 188, 191, 179, 189, 181, 183, 199, 170, 203, 173, 158, 152, 146, 139, 125, 138, 113, 104, 91, 91, 82, 75, 61, 69, 59, 37, 10, 1, 0, 0, 0, 0, 0, 0, 0, 0, 0, 0, 0, 0, 0, 0, 0, 0, 0, 0, 0, 0, 0, 0, 0, 0, 0, 0, 0, 0, 0, 0, 0, 0, 0, 0, 0, 0, 0, 0, 0, 0, 0, 0, 0, 0, 0, 0, 0, 0, 0, 0, 0, 0, 0, 0, 0, 0, 0, 0, 0
0, 0, 43, 0, 1, 4, 11, 16, 27, 24, 59, 45, 52, 90, 89, 123, 104, 135, 143, 113, 140, 142, 154, 139, 159, 164, 186, 141, 161, 143, 158, 132, 128, 114, 98, 91, 82, 99, 68, 77, 59, 49, 55, 36, 23, 13, 0, 0, 0, 0, 0, 0, 0, 0, 0, 0, 0, 0, 0, 0, 0, 0, 0, 0, 0, 0, 0, 0, 0, 0, 0, 0, 0, 0, 0, 0, 0, 0, 0, 0, 0, 0, 0, 0, 0, 0, 0, 0, 0, 0, 0, 0, 0, 0, 0, 0, 0, 0, 0, 0, 0, 0, 0, 0, 0, 0
0, 0, 44, 0, 3, 4, 2, 10, 8, 20, 36, 38, 51, 54, 85, 87, 89, 104, 121, 118, 114, 118, 134, 125, 135, 140, 99, 104, 100, 129, 118, 97, 87, 104, 99, 75, 66, 75, 65, 45, 54, 43, 40, 29, 28, 23, 0, 0, 0, 0, 0, 0, 0, 0, 0, 0, 0, 0, 0, 0, 0, 0, 0, 0, 0, 0, 0, 0, 0, 0, 0, 0, 0, 0, 0, 0, 0, 0, 0, 0, 0, 0, 0, 0, 0, 0, 0, 0, 0, 0, 0, 0, 0, 0, 0, 0, 0, 0, 0, 0, 0, 0, 0, 0, 0, 0
0, 0, 45, 0, 2, 3, 4, 6, 20, 16, 29, 28, 40, 48, 63, 59, 65, 89, 80, 80, 90, 91, 110, 94, 120, 88, 99, 96, 87, 88, 107, 86, 90, 65, 81, 66, 65, 60, 51, 39, 27, 39, 35, 28, 14, 20, 0, 0, 0, 0, 0, 0, 0, 0, 0, 0, 0, 0, 0, 0, 0, 0, 0, 0, 0, 0, 0, 0, 0, 0, 0, 0, 0, 0, 0, 0, 0, 0, 0, 0, 0, 0, 0, 0, 0, 0, 0, 0, 0, 0, 0, 0, 0, 0, 0, 0, 0, 0, 0, 0, 0, 0, 0, 0, 0, 0
0, 0, 46, 0, 1, 2, 4, 5, 8, 9, 32, 12, 27, 39, 45, 48, 57, 55, 62, 61, 61, 75, 53, 75, 79, 84, 68, 87, 76, 79, 90, 64, 66, 64, 79, 57, 58, 45, 49, 37, 27, 32, 23, 24, 12, 6, 0, 0, 0, 0, 0, 0, 0, 0, 0, 0, 0, 0, 0, 0, 0, 0, 0, 0, 0, 0, 0, 0, 0, 0, 0, 0, 0, 0, 0, 0, 0, 0, 0, 0, 0, 0, 0, 0, 0, 0, 0, 0, 0, 0, 0, 0, 0, 0, 0, 0, 0, 0, 0, 0, 0, 0, 0, 0, 0, 0
0, 0, 47, 0, 1, 0, 1, 2, 2, 6, 22, 13, 12, 21, 24, 21, 40, 48, 41, 54, 61, 65, 72, 77, 78, 58, 61, 69, 50, 59, 54, 51, 60, 58, 54, 46, 38, 37, 34, 46, 26, 30, 23, 18, 18, 4, 0, 0, 0, 0, 0, 0, 0, 0, 0, 0, 0, 0, 0, 0, 0, 0, 0, 0, 0, 0, 0, 0, 0, 0, 0, 0, 0, 0, 0, 0, 0, 0, 0, 0, 0, 0, 0, 0, 0, 0, 0, 0, 0, 0, 0, 0, 0, 0, 0, 0, 0, 0, 0, 0, 0, 0, 0, 0, 0, 0
0, 0, 48, 0, 1, 0, 0, 1, 5, 3, 13, 7, 9, 21, 8, 24, 22, 29, 25, 46, 40, 47, 41, 51, 61, 70, 54, 43, 53, 59, 57, 59, 64, 56, 50, 37, 30, 31, 33, 38, 31, 26, 26, 22, 11, 10, 0, 0, 0, 0, 0, 0, 0, 0, 0, 0, 0, 0, 0, 0, 0, 0, 0, 0, 0, 0, 0, 0, 0, 0, 0, 0, 0, 0, 0, 0, 0, 0, 0, 0, 0, 0, 0, 0, 0, 0, 0, 0, 0, 0, 0, 0, 0, 0, 0, 0, 0, 0, 0, 0, 0, 0, 0, 0, 0, 0
0, 0, 49, 1, 0, 0, 0, 0, 1, 2, 11, 2, 6, 11, 11, 15, 20, 11, 25, 23, 38, 44, 44, 57, 46, 44, 64, 55, 49, 46, 41, 38, 41, 45, 49, 39, 34, 29, 35, 24, 41, 32, 19, 22, 13, 6, 1, 0, 0, 0, 0, 0, 0, 0, 0, 0, 0, 0, 0, 0, 0, 0, 0, 0, 0, 0, 0, 0, 0, 0, 0, 0, 0, 0, 0, 0, 0, 0, 0, 0, 0, 0, 0, 0, 0, 0, 0, 0, 0, 0, 0, 0, 0, 0, 0, 0, 0, 0, 0, 0, 0, 0, 0, 0, 0, 0
0, 0, 50, 1, 0, 1, 1, 2, 0, 3, 11, 6, 5, 6, 18, 22, 20, 33, 41, 44, 40, 26, 39, 50, 56, 60, 49, 45, 41, 43, 39, 40, 49, 39, 35, 50, 28, 36, 36, 25, 23, 21, 26, 21, 16, 6, 0, 0, 0, 0, 0, 0, 0, 0, 0, 0, 0, 0, 0, 0, 0, 0, 0, 0, 0, 0, 0, 0, 0, 0, 0, 0, 0, 0, 0, 0, 0, 0, 0, 0, 0, 0, 0, 0, 0, 0, 0, 0, 0, 0, 0, 0, 0, 0, 0, 0, 0, 0, 0, 0, 0, 0, 0, 0, 0, 0
0, 0, 51, 0, 0, 0, 1, 0, 1, 2, 14, 5, 10, 14, 21, 26, 31, 32, 39, 39, 42, 43, 58, 60, 36, 46, 56, 64, 49, 47, 53, 50, 33, 37, 47, 40, 34, 37, 46, 30, 30, 32, 26, 14, 10, 9, 0, 0, 0, 0, 0, 0, 0, 0, 0, 0, 0, 0, 0, 0, 0, 0, 0, 0, 0, 0, 0, 0, 0, 0, 0, 0, 0, 0, 0, 0, 0, 0, 0, 0, 0, 0, 0, 0, 0, 0, 0, 0, 0, 0, 0, 0, 0, 0, 0, 0, 0, 0, 0, 0, 0, 0, 0, 0, 0, 0
0, 0, 52, 1, 0, 2, 2, 3, 5, 9, 16, 10, 14, 15, 27, 22, 34, 43, 50, 46, 49, 58, 77, 60, 67, 53, 57, 74, 60, 65, 51, 52, 60, 41, 65, 45, 48, 43, 28, 26, 24, 19, 25, 18, 15, 7, 1, 0, 0, 0, 0, 0, 0, 0, 0, 0, 0, 0, 0, 0, 0, 0, 0, 0, 0, 0, 0, 0, 0, 0, 0, 0, 0, 0, 0, 0, 0, 0, 0, 0, 0, 0, 0, 0, 0, 0, 0, 0, 0, 0, 0, 0, 0, 0, 0, 0, 0, 0, 0, 0, 0, 0, 0, 0, 0, 0
0, 0, 53, 2, 1, 0, 3, 5, 8, 8, 30, 20, 26, 33, 34, 51, 47, 41, 70, 55, 71, 66, 85, 73, 75, 65, 97, 77, 69, 73, 69, 63, 54, 43, 51, 61, 48, 37, 40, 44, 42, 31, 34, 16, 19, 10, 1, 0, 0, 0, 0, 0, 0, 0, 0, 0, 0, 0, 0, 0, 0, 0, 0, 0, 0, 0, 0, 0, 0, 0, 0, 0, 0, 0, 0, 0, 0, 0, 0, 0, 0, 0, 0, 0, 0, 0, 0, 0, 0, 0, 0, 0, 0, 0, 0, 0, 0, 0, 0, 0, 0, 0, 0, 0, 0, 0
0, 0, 54, 0, 2, 1, 4, 7, 10, 14, 39, 28, 35, 47, 56, 49, 66, 57, 63, 93, 86, 84, 117, 104, 88, 93, 106, 92, 80, 80, 84, 71, 83, 86, 64, 63, 55, 52, 45, 48, 44, 29, 29, 22, 19, 4, 0, 0, 0, 0, 0, 0, 0, 0, 0, 0, 0, 0, 0, 0, 0, 0, 0, 0, 0, 0, 0, 0, 0, 0, 0, 0, 0, 0, 0, 0, 0, 0, 0, 0, 0, 0, 0, 0, 0, 0, 0, 0, 0, 0, 0, 0, 0, 0, 0, 0, 0, 0, 0, 0, 0, 0, 0, 0, 0, 0
0, 0, 55, 3, 0, 2, 8, 12, 13, 15, 68, 34, 55, 55, 66, 88, 92, 84, 107, 133, 119, 137, 142, 124, 108, 111, 104, 127, 94, 111, 120, 119, 104, 97, 93, 76, 66, 66, 66, 69, 50, 50, 28, 32, 14, 8, 1, 0, 0, 0, 0, 0, 0, 0, 0, 0, 0, 0, 0, 0, 0, 0, 0, 0, 0, 0, 0, 0, 0, 0, 0, 0, 0, 0, 0, 0, 0, 0, 0, 0, 0, 0, 0, 0, 0, 0, 0, 0, 0, 0, 0, 0, 0, 0, 0, 0, 0, 0, 0, 0, 0, 0, 0, 0, 0, 0
0, 0, 56, 0, 2, 3, 7, 19, 24, 30, 52, 40, 52, 73, 110, 103, 145, 137, 129, 129, 147, 147, 155, 166, 146, 137, 144, 151, 142, 121, 143, 117, 113, 116, 113, 93, 71, 81, 71, 68, 72, 62, 41, 33, 17, 18, 0, 0, 0, 0, 0, 0, 0, 0, 0, 0, 0, 0, 0, 0, 0, 0, 0, 0, 0, 0, 0, 0, 0, 0, 0, 0, 0, 0, 0, 0, 0, 0, 0, 0, 0, 0, 0, 0, 0, 0, 0, 0, 0, 0, 0, 0, 0, 0, 0, 0, 0, 0, 0, 0, 0, 0, 0, 0, 0, 0
0, 0, 57, 1, 0, 4, 6, 24, 35, 52, 77, 74, 85, 106, 132, 136, 158, 168, 155, 187, 207, 222, 212, 182, 178, 178, 210, 157, 169, 158, 151, 176, 145, 142, 120, 116, 102, 102, 92, 88, 78, 56, 52, 48, 22, 15, 1, 0, 0, 0, 0, 0, 0, 0, 0, 0, 0, 0, 0, 0, 0, 0, 0, 0, 0, 0, 0, 0, 0, 0, 0, 0, 0, 0, 0, 0, 0, 0, 0, 0, 0, 0, 0, 0, 0, 0, 0, 0, 0, 0, 0, 0, 0, 0, 0, 0, 0, 0, 0, 0, 0, 0, 0, 0, 0, 0
0, 0, 58, 2, 2, 7, 5, 22, 35, 57, 84, 81, 98, 139, 155, 163, 165, 205, 212, 210, 248, 222, 200, 244, 230, 248, 227, 215, 192, 196, 176, 190, 184, 151, 133, 142, 114, 123, 98, 91, 89, 66, 64, 46, 35, 24, 1, 0, 0, 0, 0, 0, 0, 0, 0, 0, 0, 0, 0, 0, 0, 0, 0, 0, 0, 0, 0, 0, 0, 0, 0, 0, 0, 0, 0, 0, 0, 0, 0, 0, 0, 0, 0, 0, 0, 0, 0, 0, 0, 0, 0, 0, 0, 0, 0, 0, 0, 0, 0, 0, 0, 0, 0, 0, 0, 0
0, 0, 59, 2, 6, 7, 16, 28, 48, 63, 103, 96, 96, 117, 175, 212, 212, 207, 234, 257, 268, 237, 279, 271, 233, 267, 247, 215, 208, 203, 199, 210, 164, 166, 154, 155, 171, 118, 119, 96, 102, 75, 64, 57, 27, 24, 0, 0, 0, 0, 0, 0, 0, 0, 0, 0, 0, 0, 0, 0, 0, 0, 0, 0, 0, 0, 0, 0, 0, 0, 0, 0, 0, 0, 0, 0, 0, 0, 0, 0, 0, 0, 0, 0, 0, 0, 0, 0, 0, 0, 0, 0, 0, 0, 0, 0, 0, 0, 0, 0, 0, 0, 0, 0, 0, 0
0, 0, 60, 0, 4, 5, 14, 24, 51, 54, 120, 94, 117, 141, 166, 207, 211, 230, 228, 233, 272, 234, 242, 243, 254, 256, 245, 217, 217, 214, 188, 197, 170, 174, 149, 141, 126, 130, 120, 86, 75, 74, 72, 73, 32, 26, 1, 0, 0, 0, 0, 0, 0, 0, 0, 0, 0, 0, 0, 0, 0, 0, 0, 0, 0, 0, 0, 0, 0, 0, 0, 0, 0, 0, 0, 0, 0, 0, 0, 0, 0, 0, 0, 0, 0, 0, 0, 0, 0, 0, 0, 0, 0, 0, 0, 0, 0, 0, 0, 0, 0, 0, 0, 0, 0, 0
0, 0, 61, 2, 2, 6, 11, 25, 43, 52, 136, 80, 115, 138, 168, 156, 203, 213, 220, 272, 230, 263, 259, 250, 237, 215, 232, 231, 199, 204, 193, 167, 180, 167, 175, 152, 143, 128, 121, 90, 97, 78, 63, 48, 43, 25, 4, 0, 0, 0, 0, 0, 0, 0, 0, 0, 0, 0, 0, 0, 0, 0, 0, 0, 0, 0, 0, 0, 0, 0, 0, 0, 0, 0, 0, 0, 0, 0, 0, 0, 0, 0, 0, 0, 0, 0, 0, 0, 0, 0, 0, 0, 0, 0, 0, 0, 0, 0, 0, 0, 0, 0, 0, 0, 0, 0
0, 0, 62, 6, 2, 6, 15, 22, 44, 56, 111, 103, 95, 131, 148, 184, 222, 253, 210, 253, 219, 256, 245, 275, 233, 237, 240, 232, 223, 196, 179, 153, 184, 175, 165, 169, 121, 118, 112, 115, 104, 75, 71, 38, 41, 20, 1, 0, 0, 0, 0, 0, 0, 0, 0, 0, 0, 0, 0, 0, 0, 0, 0, 0, 0, 0, 0, 0, 0, 0, 0, 0, 0, 0, 0, 0, 0, 0, 0, 0, 0, 0, 0, 0, 0, 0, 0, 0, 0, 0, 0, 0, 0, 0, 0, 0, 0, 0, 0, 0, 0, 0, 0, 0, 0, 0
0, 0, 63, 1, 5, 5, 17, 30, 37, 64, 97, 103, 121, 160, 153, 170, 201, 238, 230, 223, 272, 246, 286, 231, 232, 245, 246, 191, 205, 214, 208, 190, 173, 147, 163, 162, 143, 116, 113, 100, 95, 79, 72, 61, 34, 22, 0, 0, 0, 0, 0, 0, 0, 0, 0, 0, 0, 0, 0, 0, 0, 0, 0, 0, 0, 0, 0, 0, 0, 0, 0, 0, 0, 0, 0, 0, 0, 0, 0, 0, 0, 0, 0, 0, 0, 0, 0, 0, 0, 0, 0, 0, 0, 0, 0, 0, 0, 0, 0, 0, 0, 0, 0, 0, 0, 0
0, 0, 64, 0, 4, 3, 15, 24, 43, 60, 118, 91, 114, 131, 210, 202, 185, 186, 211, 244, 251, 253, 246, 232, 248, 228, 235, 200, 206, 191, 213, 175, 213, 152, 157, 147, 153, 135, 114, 103, 87, 91, 62, 61, 42, 23, 1, 0, 0, 0, 0, 0, 0, 0, 0, 0, 0, 0, 0, 0, 0, 0, 0, 0, 0, 0, 0, 0, 0, 0, 0, 0, 0, 0, 0, 0, 0, 0, 0, 0, 0, 0, 0, 0, 0, 0, 0, 0, 0, 0, 0, 0, 0, 0, 0, 0, 0, 0, 0, 0, 0, 0, 0, 0, 0, 0
0, 0, 65, 5, 0, 8, 17, 30, 44, 51, 107, 99, 109, 136, 179, 200, 236, 203, 223, 261, 253, 273, 257, 240, 245, 204, 249, 196, 208, 221, 196, 171, 165, 151, 167, 112, 124, 106, 114, 96, 100, 65, 77, 48, 47, 14, 3, 0, 0, 0, 0, 0, 0, 0, 0, 0, 0, 0, 0, 0, 0, 0, 0, 0, 0, 0, 0, 0, 0, 0, 0, 0, 0, 0, 0, 0, 0, 0, 0, 0, 0, 0, 0, 0, 0, 0, 0, 0, 0, 0, 0, 0, 0, 0, 0, 0, 0, 0, 0, 0, 0, 0, 0, 0, 0, 0
0, 0, 66, 1, 6, 7, 12, 23, 56, 60, 135, 98, 92, 153, 167, 220, 228, 195, 192, 251, 232, 273, 270, 252, 296, 243, 223, 222, 239, 200, 203, 208, 181, 182, 151, 148, 119, 112, 109, 92, 96, 73, 52, 52, 39, 22, 1, 0, 0, 0, 0, 0, 0, 0, 0, 0, 0, 0, 0, 0, 0, 0, 0, 0, 0, 0, 0, 0, 0, 0, 0, 0, 0, 0, 0, 0, 0, 0, 0, 0, 0, 0, 0, 0, 0, 0, 0, 0, 0, 0, 0, 0, 0, 0, 0, 0, 0, 0, 0, 0, 0, 0, 0, 0, 0, 0
0, 0, 67, 7, 2, 8, 11, 26, 35, 51, 96, 85, 148, 147, 173, 189, 212, 191, 201, 225, 263, 252, 240, 235, 240, 241, 201, 223, 216, 222, 196, 191, 191, 152, 134, 157, 141, 138, 121, 121, 87, 83, 75, 48, 42, 33, 1, 0, 0, 0, 0, 0, 0, 0, 0, 0, 0, 0, 0, 0, 0, 0, 0, 0, 0, 0, 0, 0, 0, 0, 0, 0, 0, 0, 0, 0, 0, 0, 0, 0, 0, 0, 0, 0, 0, 0, 0, 0, 0, 0, 0, 0, 0, 0, 0, 0, 0, 0, 0, 0, 0, 0, 0, 0, 0, 0
0, 0, 68, 4, 4, 3, 15, 28, 42, 55, 122, 104, 118, 136, 179, 241, 207, 197, 241, 217, 257, 247, 235, 254, 248, 241, 214, 234, 223, 231, 193, 201, 181, 174, 144, 142, 153, 128, 121, 113, 99, 79, 68, 48, 43, 21, 0, 0, 0, 0, 0, 0, 0, 0, 0, 0, 0, 0, 0, 0, 0, 0, 0, 0, 0, 0, 0, 0, 0, 0, 0, 0, 0, 0, 0, 0, 0, 0, 0, 0, 0, 0, 0, 0, 0, 0, 0, 0, 0, 0, 0, 0, 0, 0, 0, 0, 0, 0, 0, 0, 0, 0, 0, 0, 0, 0
0, 0, 69, 4, 4, 7, 14, 24, 42, 64, 110, 101, 123, 134, 187, 204, 209, 196, 248, 232, 215, 259, 253, 256, 224, 250, 254, 236, 231, 228, 200, 166, 157, 158, 162, 145, 125, 147, 105, 112, 96, 81, 64, 52, 45, 24, 0, 0, 0, 0, 0, 0, 0, 0, 0, 0, 0, 0, 0, 0, 0, 0, 0, 0, 0, 0, 0, 0, 0, 0, 0, 0, 0, 0, 0, 0, 0, 0, 0, 0, 0, 0, 0, 0, 0, 0, 0, 0, 0, 0, 0, 0, 0, 0, 0, 0, 0, 0, 0, 0, 0, 0, 0, 0, 0, 0
0, 0, 70, 5, 4, 10, 13, 33, 39, 54, 119, 104, 114, 154, 199, 190, 207, 209, 222, 255, 262, 216, 243, 212, 248, 243, 255, 251, 197, 241, 198, 161, 183, 180, 173, 139, 141, 142, 129, 108, 122, 69, 66, 44, 47, 25, 2, 0, 0, 0, 0, 0, 0, 0, 0, 0, 0, 0, 0, 0, 0, 0, 0, 0, 0, 0, 0, 0, 0, 0, 0, 0, 0, 0, 0, 0, 0, 0, 0, 0, 0, 0, 0, 0, 0, 0, 0, 0, 0, 0, 0, 0, 0, 0, 0, 0, 0, 0, 0, 0, 0, 0, 0, 0, 0, 0
0, 0, 71, 4, 2, 9, 12, 26, 36, 44, 102, 94, 133, 148, 187, 172, 225, 261, 219, 247, 250, 266, 248, 211, 255, 243, 240, 239, 209, 201, 183, 189, 192, 153, 146, 148, 123, 132, 132, 112, 93, 75, 65, 46, 40, 18, 0, 0, 0, 0, 0, 0, 0, 0, 0, 0, 0, 0, 0, 0, 0, 0, 0, 0, 0, 0, 0, 0, 0, 0, 0, 0, 0, 0, 0, 0, 0, 0, 0, 0, 0, 0, 0, 0, 0, 0, 0, 0, 0, 0, 0, 0, 0, 0, 0, 0, 0, 0, 0, 0, 0, 0, 0, 0, 0, 0
0, 0, 72, 1, 1, 9, 14, 27, 45, 41, 116, 98, 102, 151, 176, 229, 203, 203, 245, 233, 233, 256, 248, 255, 269, 251, 251, 215, 226, 225, 211, 174, 193, 164, 161, 144, 150, 129, 127, 112, 93, 70, 65, 66, 33, 25, 5, 0, 0, 0, 0, 0, 0, 0, 0, 0, 0, 0, 0, 0, 0, 0, 0, 0, 0, 0, 0, 0, 0, 0, 0, 0, 0, 0, 0, 0, 0, 0, 0, 0, 0, 0, 0, 0, 0, 0, 0, 0, 0, 0, 0, 0, 0, 0, 0, 0, 0, 0, 0, 0, 0, 0, 0, 0, 0, 0
0, 0, 73, 2, 5, 10, 15, 27, 38, 49, 141, 85, 112, 144, 162, 180, 205, 213, 218, 245, 269, 242, 244, 252, 248, 250, 245, 221, 194, 214, 227, 188, 169, 184, 202, 162, 167, 135, 119, 98, 86, 90, 67, 64, 37, 15, 1, 0, 0, 0, 0, 0, 0, 0, 0, 0, 0, 0, 0, 0, 0, 0, 0, 0, 0, 0, 0, 0, 0, 0, 0, 0, 0, 0, 0, 0, 0, 0, 0, 0, 0, 0, 0, 0, 0, 0, 0, 0, 0, 0, 0, 0, 0, 0, 0, 0, 0, 0, 0, 0, 0, 0, 0, 0, 0, 0
0, 0, 74, 5, 1, 8, 6, 20, 36, 37, 138, 91, 101, 147, 155, 181, 203, 228, 243, 257, 244, 235, 219, 265, 242, 201, 204, 211, 238, 207, 200, 199, 199, 167, 167, 138, 153, 124, 130, 104, 94, 98, 74, 67, 36, 30, 1, 0, 0, 0, 0, 0, 0, 0, 0, 0, 0, 0, 0, 0, 0, 0, 0, 0, 0, 0, 0, 0, 0, 0, 0, 0, 0, 0, 0, 0, 0, 0, 0, 0, 0, 0, 0, 0, 0, 0, 0, 0, 0, 0, 0, 0, 0, 0, 0, 0, 0, 0, 0, 0, 0, 0, 0, 0, 0, 0
0, 0, 75, 3, 7, 9, 16, 31, 40, 69, 135, 108, 118, 156, 192, 207, 170, 220, 233, 263, 203, 270, 262, 227, 254, 233, 208, 241, 238, 235, 202, 228, 178, 152, 155, 154, 118, 102, 103, 100, 71, 72, 73, 59, 44, 21, 2, 0, 0, 0, 0, 0, 0, 0, 0, 0, 0, 0, 0, 0, 0, 0, 0, 0, 0, 0, 0, 0, 0, 0, 0, 0, 0, 0, 0, 0, 0, 0, 0, 0, 0, 0, 0, 0, 0, 0, 0, 0, 0, 0, 0, 0, 0, 0, 0, 0, 0, 0, 0, 0, 0, 0, 0, 0, 0, 0
0, 0, 76, 1, 6, 5, 10, 22, 50, 49, 142, 84, 110, 146, 161, 204, 223, 197, 214, 191, 292, 226, 270, 244, 221, 242, 245, 250, 211, 222, 192, 208, 190, 179, 166, 153, 115, 115, 127, 96, 93, 70, 62, 68, 44, 27, 0, 0, 0, 0, 0, 0, 0, 0, 0, 0, 0, 0, 0, 0, 0, 0, 0, 0, 0, 0, 0, 0, 0, 0, 0, 0, 0, 0, 0, 0, 0, 0, 0, 0, 0, 0, 0, 0, 0, 0, 0, 0, 0, 0, 0, 0, 0, 0, 0, 0, 0, 0, 0, 0, 0, 0, 0, 0, 0, 0
0, 0, 77, 2, 5, 9, 15, 25, 36, 58, 119, 87, 115, 150, 176, 182, 191, 242, 232, 253, 257, 256, 228, 240, 219, 269, 215, 249, 210, 223, 227, 218, 191, 170, 147, 168, 135, 148, 126, 89, 98, 68, 77, 58, 49, 23, 2, 0, 0, 0, 0, 0, 0, 0, 0, 0, 0, 0, 0, 0, 0, 0, 0, 0, 0, 0, 0, 0, 0, 0, 0, 0, 0, 0, 0, 0, 0, 0, 0, 0, 0, 0, 0, 0, 0, 0, 0, 0, 0, 0, 0, 0, 0, 0, 0, 0, 0, 0, 0, 0, 0, 0, 0, 0, 0, 0
