# TOPAS Version: 3.1.p3
# Parameter File: REDLEN_small_phantom_mc_basic_3cm.txt
# Results for scorer PhantomDose
# Scored on surface: CdTeCrystal1/YPlusSurface
# X in 100 bins of 0.03332 cm
# Y in 1 bin  of 0.4 cm
# Z in 100 bins of 0.0375 cm
# SurfaceTrackCount : Sum   
# Binned by incident track energy in 100 bins of 0.00104 MeV from 0.016 MeV to 0.12 MeV
# First bin is underflow, next to last bin is overflow, last bin is for case of no incident track.
0, 0, 0, 0, 0, 0, 0, 0, 2, 0, 4, 0, 2, 1, 1, 1, 3, 0, 2, 1, 6, 2, 2, 4, 0, 0, 5, 3, 2, 2, 2, 3, 3, 2, 1, 3, 2, 0, 2, 1, 0, 4, 1, 0, 0, 0, 0, 0, 0, 0, 0, 0, 0, 0, 0, 0, 0, 0, 0, 0, 0, 0, 0, 0, 0, 0, 0, 0, 0, 0, 0, 0, 0, 0, 0, 0, 0, 0, 0, 0, 0, 0, 0, 0, 0, 0, 0, 0, 0, 0, 0, 0, 0, 0, 0, 0, 0, 0, 0, 0, 0, 0, 0, 0, 0, 0
0, 0, 1, 0, 0, 0, 2, 0, 0, 2, 0, 0, 0, 2, 1, 1, 0, 2, 3, 3, 3, 2, 0, 7, 5, 5, 3, 1, 5, 3, 1, 0, 2, 3, 1, 2, 0, 1, 1, 4, 0, 3, 0, 0, 0, 0, 0, 0, 0, 0, 0, 0, 0, 0, 0, 0, 0, 0, 0, 0, 0, 0, 0, 0, 0, 0, 0, 0, 0, 0, 0, 0, 0, 0, 0, 0, 0, 0, 0, 0, 0, 0, 0, 0, 0, 0, 0, 0, 0, 0, 0, 0, 0, 0, 0, 0, 0, 0, 0, 0, 0, 0, 0, 0, 0, 0
0, 0, 2, 0, 0, 0, 0, 0, 0, 1, 0, 1, 0, 1, 1, 1, 2, 3, 0, 4, 2, 0, 0, 3, 5, 3, 1, 0, 5, 2, 1, 3, 3, 2, 0, 2, 1, 3, 0, 2, 3, 0, 4, 0, 0, 0, 0, 0, 0, 0, 0, 0, 0, 0, 0, 0, 0, 0, 0, 0, 0, 0, 0, 0, 0, 0, 0, 0, 0, 0, 0, 0, 0, 0, 0, 0, 0, 0, 0, 0, 0, 0, 0, 0, 0, 0, 0, 0, 0, 0, 0, 0, 0, 0, 0, 0, 0, 0, 0, 0, 0, 0, 0, 0, 0, 0
0, 0, 3, 0, 0, 0, 0, 0, 0, 0, 2, 1, 2, 3, 0, 1, 2, 3, 2, 4, 2, 2, 0, 5, 4, 0, 3, 2, 3, 2, 2, 0, 0, 5, 2, 4, 4, 1, 0, 2, 0, 0, 0, 2, 1, 1, 0, 0, 0, 0, 0, 0, 0, 0, 0, 0, 0, 0, 0, 0, 0, 0, 0, 0, 0, 0, 0, 0, 0, 0, 0, 0, 0, 0, 0, 0, 0, 0, 0, 0, 0, 0, 0, 0, 0, 0, 0, 0, 0, 0, 0, 0, 0, 0, 0, 0, 0, 0, 0, 0, 0, 0, 0, 0, 0, 0
0, 0, 4, 0, 0, 0, 2, 0, 0, 0, 0, 1, 0, 3, 0, 2, 2, 3, 2, 1, 1, 2, 1, 5, 2, 1, 2, 4, 4, 2, 1, 1, 1, 4, 1, 3, 0, 1, 2, 1, 1, 2, 0, 3, 0, 0, 0, 0, 0, 0, 0, 0, 0, 0, 0, 0, 0, 0, 0, 0, 0, 0, 0, 0, 0, 0, 0, 0, 0, 0, 0, 0, 0, 0, 0, 0, 0, 0, 0, 0, 0, 0, 0, 0, 0, 0, 0, 0, 0, 0, 0, 0, 0, 0, 0, 0, 0, 0, 0, 0, 0, 0, 0, 0, 0, 0
0, 0, 5, 0, 2, 2, 7, 10, 19, 20, 74, 45, 37, 59, 66, 89, 68, 98, 106, 96, 125, 108, 116, 107, 109, 105, 110, 82, 95, 98, 85, 77, 94, 71, 74, 54, 63, 61, 35, 40, 48, 34, 32, 23, 7, 6, 1, 0, 0, 0, 0, 0, 0, 0, 0, 0, 0, 0, 0, 0, 0, 0, 0, 0, 0, 0, 0, 0, 0, 0, 0, 0, 0, 0, 0, 0, 0, 0, 0, 0, 0, 0, 0, 0, 0, 0, 0, 0, 0, 0, 0, 0, 0, 0, 0, 0, 0, 0, 0, 0, 0, 0, 0, 0, 0, 0
0, 0, 6, 1, 2, 8, 11, 23, 31, 70, 118, 93, 103, 122, 169, 209, 203, 188, 213, 236, 237, 233, 253, 257, 235, 241, 233, 272, 215, 204, 207, 175, 174, 160, 163, 148, 113, 127, 132, 117, 94, 61, 53, 51, 31, 15, 0, 0, 0, 0, 0, 0, 0, 0, 0, 0, 0, 0, 0, 0, 0, 0, 0, 0, 0, 0, 0, 0, 0, 0, 0, 0, 0, 0, 0, 0, 0, 0, 0, 0, 0, 0, 0, 0, 0, 0, 0, 0, 0, 0, 0, 0, 0, 0, 0, 0, 0, 0, 0, 0, 0, 0, 0, 0, 0, 0
0, 0, 7, 6, 7, 8, 19, 23, 24, 56, 119, 107, 126, 141, 178, 205, 186, 253, 213, 254, 223, 265, 270, 247, 268, 229, 227, 250, 228, 232, 178, 188, 183, 164, 147, 135, 150, 123, 103, 106, 103, 80, 70, 60, 42, 28, 0, 0, 0, 0, 0, 0, 0, 0, 0, 0, 0, 0, 0, 0, 0, 0, 0, 0, 0, 0, 0, 0, 0, 0, 0, 0, 0, 0, 0, 0, 0, 0, 0, 0, 0, 0, 0, 0, 0, 0, 0, 0, 0, 0, 0, 0, 0, 0, 0, 0, 0, 0, 0, 0, 0, 0, 0, 0, 0, 0
0, 0, 8, 7, 3, 7, 20, 25, 50, 60, 108, 102, 118, 147, 172, 203, 177, 206, 211, 239, 257, 271, 255, 230, 230, 209, 226, 212, 228, 175, 206, 190, 148, 165, 135, 173, 131, 128, 121, 115, 97, 79, 73, 59, 42, 23, 1, 0, 0, 0, 0, 0, 0, 0, 0, 0, 0, 0, 0, 0, 0, 0, 0, 0, 0, 0, 0, 0, 0, 0, 0, 0, 0, 0, 0, 0, 0, 0, 0, 0, 0, 0, 0, 0, 0, 0, 0, 0, 0, 0, 0, 0, 0, 0, 0, 0, 0, 0, 0, 0, 0, 0, 0, 0, 0, 0
0, 0, 9, 0, 4, 3, 18, 23, 43, 57, 144, 79, 94, 151, 165, 190, 200, 199, 239, 247, 245, 281, 241, 275, 248, 247, 245, 233, 234, 217, 219, 176, 182, 160, 138, 139, 141, 124, 110, 108, 79, 73, 73, 67, 39, 24, 2, 0, 0, 0, 0, 0, 0, 0, 0, 0, 0, 0, 0, 0, 0, 0, 0, 0, 0, 0, 0, 0, 0, 0, 0, 0, 0, 0, 0, 0, 0, 0, 0, 0, 0, 0, 0, 0, 0, 0, 0, 0, 0, 0, 0, 0, 0, 0, 0, 0, 0, 0, 0, 0, 0, 0, 0, 0, 0, 0
0, 0, 10, 7, 2, 5, 19, 30, 33, 45, 117, 94, 116, 160, 197, 205, 183, 207, 225, 265, 227, 241, 248, 242, 255, 271, 228, 248, 216, 196, 209, 186, 162, 164, 177, 129, 139, 126, 123, 83, 95, 64, 49, 43, 35, 19, 3, 0, 0, 0, 0, 0, 0, 0, 0, 0, 0, 0, 0, 0, 0, 0, 0, 0, 0, 0, 0, 0, 0, 0, 0, 0, 0, 0, 0, 0, 0, 0, 0, 0, 0, 0, 0, 0, 0, 0, 0, 0, 0, 0, 0, 0, 0, 0, 0, 0, 0, 0, 0, 0, 0, 0, 0, 0, 0, 0
0, 0, 11, 2, 5, 4, 17, 24, 32, 71, 106, 99, 138, 150, 173, 221, 206, 197, 234, 229, 229, 259, 230, 238, 235, 229, 230, 227, 208, 201, 190, 211, 180, 167, 166, 143, 137, 110, 130, 112, 97, 81, 71, 62, 49, 17, 1, 0, 0, 0, 0, 0, 0, 0, 0, 0, 0, 0, 0, 0, 0, 0, 0, 0, 0, 0, 0, 0, 0, 0, 0, 0, 0, 0, 0, 0, 0, 0, 0, 0, 0, 0, 0, 0, 0, 0, 0, 0, 0, 0, 0, 0, 0, 0, 0, 0, 0, 0, 0, 0, 0, 0, 0, 0, 0, 0
0, 0, 12, 5, 3, 5, 20, 22, 47, 51, 110, 93, 117, 132, 197, 199, 182, 243, 221, 242, 243, 253, 231, 263, 233, 252, 241, 249, 210, 206, 208, 189, 164, 151, 139, 134, 150, 148, 109, 116, 88, 66, 60, 49, 42, 16, 1, 0, 0, 0, 0, 0, 0, 0, 0, 0, 0, 0, 0, 0, 0, 0, 0, 0, 0, 0, 0, 0, 0, 0, 0, 0, 0, 0, 0, 0, 0, 0, 0, 0, 0, 0, 0, 0, 0, 0, 0, 0, 0, 0, 0, 0, 0, 0, 0, 0, 0, 0, 0, 0, 0, 0, 0, 0, 0, 0
0, 0, 13, 2, 4, 10, 18, 30, 43, 66, 117, 106, 96, 159, 185, 200, 192, 200, 247, 251, 251, 231, 238, 246, 254, 247, 242, 210, 177, 182, 205, 203, 173, 171, 162, 148, 131, 120, 102, 102, 113, 79, 67, 62, 48, 27, 2, 0, 0, 0, 0, 0, 0, 0, 0, 0, 0, 0, 0, 0, 0, 0, 0, 0, 0, 0, 0, 0, 0, 0, 0, 0, 0, 0, 0, 0, 0, 0, 0, 0, 0, 0, 0, 0, 0, 0, 0, 0, 0, 0, 0, 0, 0, 0, 0, 0, 0, 0, 0, 0, 0, 0, 0, 0, 0, 0
0, 0, 14, 5, 2, 3, 9, 24, 27, 52, 119, 104, 121, 133, 177, 208, 192, 230, 196, 261, 236, 283, 249, 265, 257, 228, 207, 218, 208, 202, 205, 187, 180, 185, 153, 163, 154, 142, 127, 98, 88, 66, 71, 68, 48, 22, 3, 0, 0, 0, 0, 0, 0, 0, 0, 0, 0, 0, 0, 0, 0, 0, 0, 0, 0, 0, 0, 0, 0, 0, 0, 0, 0, 0, 0, 0, 0, 0, 0, 0, 0, 0, 0, 0, 0, 0, 0, 0, 0, 0, 0, 0, 0, 0, 0, 0, 0, 0, 0, 0, 0, 0, 0, 0, 0, 0
0, 0, 15, 1, 3, 10, 13, 25, 43, 69, 121, 99, 113, 143, 172, 213, 207, 213, 199, 238, 257, 226, 268, 235, 235, 261, 231, 260, 232, 195, 205, 179, 184, 173, 156, 144, 143, 117, 98, 101, 92, 73, 65, 64, 37, 26, 2, 0, 0, 0, 0, 0, 0, 0, 0, 0, 0, 0, 0, 0, 0, 0, 0, 0, 0, 0, 0, 0, 0, 0, 0, 0, 0, 0, 0, 0, 0, 0, 0, 0, 0, 0, 0, 0, 0, 0, 0, 0, 0, 0, 0, 0, 0, 0, 0, 0, 0, 0, 0, 0, 0, 0, 0, 0, 0, 0
0, 0, 16, 5, 3, 6, 18, 26, 37, 61, 112, 107, 129, 142, 153, 186, 207, 206, 237, 263, 243, 259, 245, 271, 218, 213, 243, 238, 211, 221, 200, 162, 182, 157, 165, 148, 142, 124, 108, 100, 87, 92, 74, 39, 39, 13, 0, 0, 0, 0, 0, 0, 0, 0, 0, 0, 0, 0, 0, 0, 0, 0, 0, 0, 0, 0, 0, 0, 0, 0, 0, 0, 0, 0, 0, 0, 0, 0, 0, 0, 0, 0, 0, 0, 0, 0, 0, 0, 0, 0, 0, 0, 0, 0, 0, 0, 0, 0, 0, 0, 0, 0, 0, 0, 0, 0
0, 0, 17, 2, 4, 8, 19, 26, 37, 57, 116, 85, 109, 147, 168, 199, 208, 200, 209, 238, 264, 234, 277, 243, 221, 204, 259, 218, 224, 222, 186, 192, 172, 142, 147, 173, 148, 114, 101, 94, 68, 87, 55, 52, 27, 21, 1, 0, 0, 0, 0, 0, 0, 0, 0, 0, 0, 0, 0, 0, 0, 0, 0, 0, 0, 0, 0, 0, 0, 0, 0, 0, 0, 0, 0, 0, 0, 0, 0, 0, 0, 0, 0, 0, 0, 0, 0, 0, 0, 0, 0, 0, 0, 0, 0, 0, 0, 0, 0, 0, 0, 0, 0, 0, 0, 0
0, 0, 18, 2, 5, 11, 15, 28, 35, 52, 119, 67, 125, 175, 174, 229, 190, 211, 227, 244, 268, 239, 261, 235, 240, 242, 254, 223, 185, 234, 186, 210, 173, 166, 138, 168, 130, 98, 123, 98, 81, 91, 60, 52, 42, 20, 0, 0, 0, 0, 0, 0, 0, 0, 0, 0, 0, 0, 0, 0, 0, 0, 0, 0, 0, 0, 0, 0, 0, 0, 0, 0, 0, 0, 0, 0, 0, 0, 0, 0, 0, 0, 0, 0, 0, 0, 0, 0, 0, 0, 0, 0, 0, 0, 0, 0, 0, 0, 0, 0, 0, 0, 0, 0, 0, 0
0, 0, 19, 1, 6, 2, 22, 32, 35, 52, 134, 95, 103, 157, 174, 189, 196, 235, 226, 238, 300, 247, 261, 236, 224, 250, 264, 234, 220, 190, 214, 206, 180, 135, 151, 160, 127, 130, 115, 86, 84, 72, 65, 52, 29, 20, 2, 0, 0, 0, 0, 0, 0, 0, 0, 0, 0, 0, 0, 0, 0, 0, 0, 0, 0, 0, 0, 0, 0, 0, 0, 0, 0, 0, 0, 0, 0, 0, 0, 0, 0, 0, 0, 0, 0, 0, 0, 0, 0, 0, 0, 0, 0, 0, 0, 0, 0, 0, 0, 0, 0, 0, 0, 0, 0, 0
0, 0, 20, 2, 2, 5, 16, 36, 42, 64, 128, 94, 109, 138, 173, 199, 217, 200, 214, 243, 236, 255, 240, 236, 242, 221, 262, 217, 203, 215, 204, 197, 177, 148, 151, 154, 155, 135, 124, 94, 94, 83, 72, 56, 46, 16, 0, 0, 0, 0, 0, 0, 0, 0, 0, 0, 0, 0, 0, 0, 0, 0, 0, 0, 0, 0, 0, 0, 0, 0, 0, 0, 0, 0, 0, 0, 0, 0, 0, 0, 0, 0, 0, 0, 0, 0, 0, 0, 0, 0, 0, 0, 0, 0, 0, 0, 0, 0, 0, 0, 0, 0, 0, 0, 0, 0
0, 0, 21, 7, 1, 10, 11, 21, 49, 68, 122, 95, 115, 157, 165, 207, 192, 203, 209, 214, 243, 232, 231, 223, 247, 226, 236, 239, 209, 216, 200, 166, 168, 160, 137, 179, 158, 137, 112, 104, 97, 72, 72, 57, 39, 20, 0, 0, 0, 0, 0, 0, 0, 0, 0, 0, 0, 0, 0, 0, 0, 0, 0, 0, 0, 0, 0, 0, 0, 0, 0, 0, 0, 0, 0, 0, 0, 0, 0, 0, 0, 0, 0, 0, 0, 0, 0, 0, 0, 0, 0, 0, 0, 0, 0, 0, 0, 0, 0, 0, 0, 0, 0, 0, 0, 0
0, 0, 22, 3, 4, 1, 21, 30, 45, 64, 119, 91, 110, 164, 139, 197, 173, 191, 251, 233, 266, 237, 236, 238, 251, 235, 231, 238, 217, 201, 193, 184, 159, 169, 141, 141, 118, 129, 99, 90, 92, 78, 79, 61, 41, 14, 1, 0, 0, 0, 0, 0, 0, 0, 0, 0, 0, 0, 0, 0, 0, 0, 0, 0, 0, 0, 0, 0, 0, 0, 0, 0, 0, 0, 0, 0, 0, 0, 0, 0, 0, 0, 0, 0, 0, 0, 0, 0, 0, 0, 0, 0, 0, 0, 0, 0, 0, 0, 0, 0, 0, 0, 0, 0, 0, 0
0, 0, 23, 3, 2, 7, 17, 31, 39, 52, 117, 114, 106, 142, 182, 239, 203, 250, 217, 237, 223, 290, 250, 245, 296, 255, 242, 211, 231, 191, 176, 190, 188, 158, 135, 168, 153, 106, 122, 108, 75, 77, 64, 46, 35, 19, 2, 0, 0, 0, 0, 0, 0, 0, 0, 0, 0, 0, 0, 0, 0, 0, 0, 0, 0, 0, 0, 0, 0, 0, 0, 0, 0, 0, 0, 0, 0, 0, 0, 0, 0, 0, 0, 0, 0, 0, 0, 0, 0, 0, 0, 0, 0, 0, 0, 0, 0, 0, 0, 0, 0, 0, 0, 0, 0, 0
0, 0, 24, 5, 7, 12, 19, 30, 28, 50, 112, 95, 91, 147, 171, 181, 206, 223, 224, 235, 255, 247, 254, 243, 250, 228, 262, 250, 220, 205, 189, 173, 210, 180, 151, 177, 146, 109, 136, 104, 93, 67, 68, 52, 41, 15, 1, 0, 0, 0, 0, 0, 0, 0, 0, 0, 0, 0, 0, 0, 0, 0, 0, 0, 0, 0, 0, 0, 0, 0, 0, 0, 0, 0, 0, 0, 0, 0, 0, 0, 0, 0, 0, 0, 0, 0, 0, 0, 0, 0, 0, 0, 0, 0, 0, 0, 0, 0, 0, 0, 0, 0, 0, 0, 0, 0
0, 0, 25, 3, 3, 4, 19, 22, 33, 53, 118, 90, 120, 152, 172, 192, 173, 213, 217, 244, 274, 250, 266, 234, 267, 271, 219, 223, 209, 213, 229, 186, 163, 149, 137, 159, 119, 118, 141, 91, 91, 75, 79, 52, 31, 23, 2, 0, 0, 0, 0, 0, 0, 0, 0, 0, 0, 0, 0, 0, 0, 0, 0, 0, 0, 0, 0, 0, 0, 0, 0, 0, 0, 0, 0, 0, 0, 0, 0, 0, 0, 0, 0, 0, 0, 0, 0, 0, 0, 0, 0, 0, 0, 0, 0, 0, 0, 0, 0, 0, 0, 0, 0, 0, 0, 0
0, 0, 26, 3, 5, 9, 10, 35, 45, 73, 118, 95, 102, 148, 156, 206, 202, 231, 210, 254, 232, 274, 253, 224, 267, 239, 245, 218, 206, 186, 188, 186, 160, 178, 156, 154, 151, 117, 129, 104, 83, 79, 75, 63, 35, 19, 0, 0, 0, 0, 0, 0, 0, 0, 0, 0, 0, 0, 0, 0, 0, 0, 0, 0, 0, 0, 0, 0, 0, 0, 0, 0, 0, 0, 0, 0, 0, 0, 0, 0, 0, 0, 0, 0, 0, 0, 0, 0, 0, 0, 0, 0, 0, 0, 0, 0, 0, 0, 0, 0, 0, 0, 0, 0, 0, 0
0, 0, 27, 5, 3, 7, 12, 33, 37, 66, 127, 87, 106, 150, 167, 205, 196, 208, 210, 286, 233, 246, 205, 254, 257, 236, 232, 243, 221, 223, 189, 185, 183, 174, 173, 153, 140, 132, 120, 104, 75, 63, 61, 52, 35, 9, 4, 0, 0, 0, 0, 0, 0, 0, 0, 0, 0, 0, 0, 0, 0, 0, 0, 0, 0, 0, 0, 0, 0, 0, 0, 0, 0, 0, 0, 0, 0, 0, 0, 0, 0, 0, 0, 0, 0, 0, 0, 0, 0, 0, 0, 0, 0, 0, 0, 0, 0, 0, 0, 0, 0, 0, 0, 0, 0, 0
0, 0, 28, 3, 4, 10, 14, 31, 46, 62, 133, 81, 146, 132, 177, 173, 189, 193, 238, 263, 250, 237, 265, 249, 252, 213, 262, 259, 208, 216, 189, 203, 187, 195, 166, 162, 130, 121, 116, 100, 91, 90, 54, 66, 39, 22, 3, 0, 0, 0, 0, 0, 0, 0, 0, 0, 0, 0, 0, 0, 0, 0, 0, 0, 0, 0, 0, 0, 0, 0, 0, 0, 0, 0, 0, 0, 0, 0, 0, 0, 0, 0, 0, 0, 0, 0, 0, 0, 0, 0, 0, 0, 0, 0, 0, 0, 0, 0, 0, 0, 0, 0, 0, 0, 0, 0
0, 0, 29, 4, 8, 9, 11, 39, 39, 64, 113, 97, 105, 120, 175, 211, 180, 190, 241, 239, 249, 267, 245, 247, 247, 219, 233, 252, 209, 213, 201, 188, 187, 153, 164, 144, 154, 130, 106, 100, 95, 94, 72, 60, 31, 18, 1, 0, 0, 0, 0, 0, 0, 0, 0, 0, 0, 0, 0, 0, 0, 0, 0, 0, 0, 0, 0, 0, 0, 0, 0, 0, 0, 0, 0, 0, 0, 0, 0, 0, 0, 0, 0, 0, 0, 0, 0, 0, 0, 0, 0, 0, 0, 0, 0, 0, 0, 0, 0, 0, 0, 0, 0, 0, 0, 0
0, 0, 30, 4, 1, 4, 19, 25, 30, 65, 98, 92, 117, 138, 155, 201, 209, 201, 242, 253, 210, 246, 216, 258, 253, 235, 239, 207, 224, 244, 186, 209, 185, 182, 158, 144, 140, 125, 116, 90, 90, 77, 69, 60, 44, 18, 1, 0, 0, 0, 0, 0, 0, 0, 0, 0, 0, 0, 0, 0, 0, 0, 0, 0, 0, 0, 0, 0, 0, 0, 0, 0, 0, 0, 0, 0, 0, 0, 0, 0, 0, 0, 0, 0, 0, 0, 0, 0, 0, 0, 0, 0, 0, 0, 0, 0, 0, 0, 0, 0, 0, 0, 0, 0, 0, 0
0, 0, 31, 3, 0, 6, 14, 22, 40, 49, 109, 100, 104, 170, 196, 216, 193, 206, 263, 232, 265, 267, 242, 222, 258, 226, 235, 192, 215, 205, 192, 190, 179, 166, 167, 146, 131, 132, 112, 105, 93, 78, 78, 59, 28, 19, 2, 0, 0, 0, 0, 0, 0, 0, 0, 0, 0, 0, 0, 0, 0, 0, 0, 0, 0, 0, 0, 0, 0, 0, 0, 0, 0, 0, 0, 0, 0, 0, 0, 0, 0, 0, 0, 0, 0, 0, 0, 0, 0, 0, 0, 0, 0, 0, 0, 0, 0, 0, 0, 0, 0, 0, 0, 0, 0, 0
0, 0, 32, 0, 3, 6, 24, 27, 45, 57, 124, 93, 120, 123, 208, 182, 217, 206, 218, 209, 251, 231, 220, 237, 255, 253, 255, 207, 205, 229, 198, 169, 176, 165, 160, 130, 125, 125, 118, 97, 88, 73, 74, 56, 32, 18, 2, 0, 0, 0, 0, 0, 0, 0, 0, 0, 0, 0, 0, 0, 0, 0, 0, 0, 0, 0, 0, 0, 0, 0, 0, 0, 0, 0, 0, 0, 0, 0, 0, 0, 0, 0, 0, 0, 0, 0, 0, 0, 0, 0, 0, 0, 0, 0, 0, 0, 0, 0, 0, 0, 0, 0, 0, 0, 0, 0
0, 0, 33, 1, 3, 12, 21, 26, 38, 59, 144, 97, 108, 146, 172, 185, 190, 221, 222, 261, 214, 245, 245, 279, 220, 231, 238, 189, 243, 215, 180, 190, 182, 144, 162, 135, 122, 162, 125, 94, 86, 81, 65, 67, 41, 23, 1, 0, 0, 0, 0, 0, 0, 0, 0, 0, 0, 0, 0, 0, 0, 0, 0, 0, 0, 0, 0, 0, 0, 0, 0, 0, 0, 0, 0, 0, 0, 0, 0, 0, 0, 0, 0, 0, 0, 0, 0, 0, 0, 0, 0, 0, 0, 0, 0, 0, 0, 0, 0, 0, 0, 0, 0, 0, 0, 0
0, 0, 34, 3, 6, 9, 16, 35, 40, 53, 132, 101, 107, 152, 166, 206, 231, 209, 226, 275, 233, 244, 227, 269, 259, 245, 233, 228, 214, 206, 215, 198, 179, 160, 144, 132, 136, 119, 114, 85, 81, 74, 56, 62, 48, 16, 2, 0, 0, 0, 0, 0, 0, 0, 0, 0, 0, 0, 0, 0, 0, 0, 0, 0, 0, 0, 0, 0, 0, 0, 0, 0, 0, 0, 0, 0, 0, 0, 0, 0, 0, 0, 0, 0, 0, 0, 0, 0, 0, 0, 0, 0, 0, 0, 0, 0, 0, 0, 0, 0, 0, 0, 0, 0, 0, 0
0, 0, 35, 2, 1, 13, 18, 26, 27, 61, 118, 91, 103, 138, 191, 199, 198, 183, 226, 233, 260, 238, 253, 262, 241, 284, 236, 221, 222, 205, 218, 171, 174, 148, 169, 149, 165, 118, 97, 111, 107, 69, 60, 48, 42, 17, 0, 0, 0, 0, 0, 0, 0, 0, 0, 0, 0, 0, 0, 0, 0, 0, 0, 0, 0, 0, 0, 0, 0, 0, 0, 0, 0, 0, 0, 0, 0, 0, 0, 0, 0, 0, 0, 0, 0, 0, 0, 0, 0, 0, 0, 0, 0, 0, 0, 0, 0, 0, 0, 0, 0, 0, 0, 0, 0, 0
0, 0, 36, 0, 5, 9, 11, 25, 40, 58, 110, 81, 116, 155, 172, 189, 222, 217, 247, 230, 261, 283, 252, 288, 234, 224, 231, 227, 211, 177, 197, 181, 189, 164, 160, 161, 145, 130, 124, 120, 110, 77, 71, 50, 46, 21, 0, 0, 0, 0, 0, 0, 0, 0, 0, 0, 0, 0, 0, 0, 0, 0, 0, 0, 0, 0, 0, 0, 0, 0, 0, 0, 0, 0, 0, 0, 0, 0, 0, 0, 0, 0, 0, 0, 0, 0, 0, 0, 0, 0, 0, 0, 0, 0, 0, 0, 0, 0, 0, 0, 0, 0, 0, 0, 0, 0
0, 0, 37, 2, 7, 13, 12, 20, 48, 76, 114, 87, 118, 162, 180, 217, 193, 202, 227, 255, 209, 232, 234, 225, 203, 215, 250, 217, 211, 202, 198, 186, 163, 161, 163, 139, 152, 118, 121, 104, 105, 73, 70, 48, 43, 24, 1, 0, 0, 0, 0, 0, 0, 0, 0, 0, 0, 0, 0, 0, 0, 0, 0, 0, 0, 0, 0, 0, 0, 0, 0, 0, 0, 0, 0, 0, 0, 0, 0, 0, 0, 0, 0, 0, 0, 0, 0, 0, 0, 0, 0, 0, 0, 0, 0, 0, 0, 0, 0, 0, 0, 0, 0, 0, 0, 0
0, 0, 38, 3, 3, 9, 11, 26, 42, 67, 126, 119, 110, 146, 168, 157, 181, 187, 242, 234, 265, 257, 252, 280, 242, 256, 238, 222, 224, 211, 216, 193, 159, 179, 164, 141, 138, 138, 110, 85, 89, 95, 80, 50, 35, 28, 3, 0, 0, 0, 0, 0, 0, 0, 0, 0, 0, 0, 0, 0, 0, 0, 0, 0, 0, 0, 0, 0, 0, 0, 0, 0, 0, 0, 0, 0, 0, 0, 0, 0, 0, 0, 0, 0, 0, 0, 0, 0, 0, 0, 0, 0, 0, 0, 0, 0, 0, 0, 0, 0, 0, 0, 0, 0, 0, 0
0, 0, 39, 5, 1, 5, 23, 24, 44, 56, 111, 96, 133, 141, 157, 182, 229, 196, 226, 238, 284, 252, 247, 270, 248, 209, 214, 208, 197, 221, 172, 173, 175, 140, 143, 142, 131, 129, 120, 115, 81, 68, 63, 44, 39, 29, 2, 0, 0, 0, 0, 0, 0, 0, 0, 0, 0, 0, 0, 0, 0, 0, 0, 0, 0, 0, 0, 0, 0, 0, 0, 0, 0, 0, 0, 0, 0, 0, 0, 0, 0, 0, 0, 0, 0, 0, 0, 0, 0, 0, 0, 0, 0, 0, 0, 0, 0, 0, 0, 0, 0, 0, 0, 0, 0, 0
0, 0, 40, 0, 4, 8, 11, 25, 32, 53, 131, 102, 111, 141, 190, 193, 211, 191, 231, 245, 265, 249, 259, 261, 240, 233, 220, 216, 247, 201, 232, 186, 155, 171, 177, 132, 127, 131, 118, 105, 96, 64, 73, 53, 33, 25, 1, 0, 0, 0, 0, 0, 0, 0, 0, 0, 0, 0, 0, 0, 0, 0, 0, 0, 0, 0, 0, 0, 0, 0, 0, 0, 0, 0, 0, 0, 0, 0, 0, 0, 0, 0, 0, 0, 0, 0, 0, 0, 0, 0, 0, 0, 0, 0, 0, 0, 0, 0, 0, 0, 0, 0, 0, 0, 0, 0
0, 0, 41, 5, 3, 6, 11, 33, 29, 49, 99, 87, 107, 121, 156, 181, 203, 200, 203, 209, 241, 201, 228, 240, 222, 215, 214, 215, 220, 196, 185, 162, 156, 174, 156, 144, 144, 122, 85, 122, 86, 81, 67, 46, 36, 23, 0, 0, 0, 0, 0, 0, 0, 0, 0, 0, 0, 0, 0, 0, 0, 0, 0, 0, 0, 0, 0, 0, 0, 0, 0, 0, 0, 0, 0, 0, 0, 0, 0, 0, 0, 0, 0, 0, 0, 0, 0, 0, 0, 0, 0, 0, 0, 0, 0, 0, 0, 0, 0, 0, 0, 0, 0, 0, 0, 0
0, 0, 42, 0, 2, 5, 16, 13, 27, 52, 60, 77, 70, 109, 127, 146, 164, 160, 161, 170, 175, 174, 185, 226, 221, 196, 173, 185, 187, 143, 146, 138, 144, 150, 117, 109, 115, 97, 97, 74, 86, 71, 46, 46, 27, 17, 1, 0, 0, 0, 0, 0, 0, 0, 0, 0, 0, 0, 0, 0, 0, 0, 0, 0, 0, 0, 0, 0, 0, 0, 0, 0, 0, 0, 0, 0, 0, 0, 0, 0, 0, 0, 0, 0, 0, 0, 0, 0, 0, 0, 0, 0, 0, 0, 0, 0, 0, 0, 0, 0, 0, 0, 0, 0, 0, 0
0, 0, 43, 2, 3, 4, 11, 9, 21, 24, 52, 41, 58, 74, 94, 112, 124, 115, 153, 142, 141, 140, 134, 188, 143, 140, 143, 131, 145, 147, 119, 116, 113, 107, 96, 101, 108, 96, 76, 71, 65, 51, 51, 27, 26, 18, 1, 0, 0, 0, 0, 0, 0, 0, 0, 0, 0, 0, 0, 0, 0, 0, 0, 0, 0, 0, 0, 0, 0, 0, 0, 0, 0, 0, 0, 0, 0, 0, 0, 0, 0, 0, 0, 0, 0, 0, 0, 0, 0, 0, 0, 0, 0, 0, 0, 0, 0, 0, 0, 0, 0, 0, 0, 0, 0, 0
0, 0, 44, 3, 1, 2, 6, 8, 11, 24, 52, 38, 39, 53, 64, 78, 104, 99, 97, 113, 118, 107, 138, 133, 116, 96, 116, 108, 123, 96, 117, 104, 86, 86, 103, 70, 70, 66, 62, 60, 50, 33, 40, 27, 22, 17, 2, 0, 0, 0, 0, 0, 0, 0, 0, 0, 0, 0, 0, 0, 0, 0, 0, 0, 0, 0, 0, 0, 0, 0, 0, 0, 0, 0, 0, 0, 0, 0, 0, 0, 0, 0, 0, 0, 0, 0, 0, 0, 0, 0, 0, 0, 0, 0, 0, 0, 0, 0, 0, 0, 0, 0, 0, 0, 0, 0
0, 0, 45, 7, 2, 2, 4, 7, 13, 18, 30, 27, 33, 53, 53, 60, 63, 82, 90, 75, 79, 76, 87, 90, 103, 86, 103, 99, 83, 78, 82, 91, 69, 90, 68, 77, 57, 67, 43, 46, 36, 48, 25, 31, 24, 16, 2, 0, 0, 0, 0, 0, 0, 0, 0, 0, 0, 0, 0, 0, 0, 0, 0, 0, 0, 0, 0, 0, 0, 0, 0, 0, 0, 0, 0, 0, 0, 0, 0, 0, 0, 0, 0, 0, 0, 0, 0, 0, 0, 0, 0, 0, 0, 0, 0, 0, 0, 0, 0, 0, 0, 0, 0, 0, 0, 0
0, 0, 46, 1, 2, 0, 6, 2, 8, 11, 20, 27, 22, 25, 31, 47, 47, 49, 53, 56, 83, 92, 80, 67, 62, 72, 74, 70, 64, 70, 68, 75, 63, 49, 72, 39, 55, 54, 42, 42, 33, 34, 26, 30, 15, 5, 1, 0, 0, 0, 0, 0, 0, 0, 0, 0, 0, 0, 0, 0, 0, 0, 0, 0, 0, 0, 0, 0, 0, 0, 0, 0, 0, 0, 0, 0, 0, 0, 0, 0, 0, 0, 0, 0, 0, 0, 0, 0, 0, 0, 0, 0, 0, 0, 0, 0, 0, 0, 0, 0, 0, 0, 0, 0, 0, 0
0, 0, 47, 2, 0, 1, 4, 2, 5, 9, 19, 14, 14, 17, 38, 32, 40, 38, 50, 50, 53, 54, 56, 62, 62, 60, 44, 71, 64, 72, 62, 63, 55, 49, 56, 63, 51, 33, 41, 33, 21, 25, 25, 14, 15, 8, 0, 0, 0, 0, 0, 0, 0, 0, 0, 0, 0, 0, 0, 0, 0, 0, 0, 0, 0, 0, 0, 0, 0, 0, 0, 0, 0, 0, 0, 0, 0, 0, 0, 0, 0, 0, 0, 0, 0, 0, 0, 0, 0, 0, 0, 0, 0, 0, 0, 0, 0, 0, 0, 0, 0, 0, 0, 0, 0, 0
0, 0, 48, 3, 0, 1, 1, 1, 2, 3, 12, 12, 6, 8, 17, 10, 24, 29, 37, 31, 53, 41, 42, 42, 47, 62, 58, 65, 50, 55, 60, 44, 49, 43, 54, 43, 31, 34, 42, 32, 33, 22, 21, 19, 10, 3, 0, 0, 0, 0, 0, 0, 0, 0, 0, 0, 0, 0, 0, 0, 0, 0, 0, 0, 0, 0, 0, 0, 0, 0, 0, 0, 0, 0, 0, 0, 0, 0, 0, 0, 0, 0, 0, 0, 0, 0, 0, 0, 0, 0, 0, 0, 0, 0, 0, 0, 0, 0, 0, 0, 0, 0, 0, 0, 0, 0
0, 0, 49, 0, 0, 0, 0, 0, 1, 0, 12, 4, 7, 18, 9, 14, 23, 24, 25, 36, 46, 44, 45, 56, 33, 53, 44, 43, 39, 57, 58, 58, 46, 39, 46, 42, 48, 28, 51, 24, 25, 23, 24, 18, 11, 6, 0, 0, 0, 0, 0, 0, 0, 0, 0, 0, 0, 0, 0, 0, 0, 0, 0, 0, 0, 0, 0, 0, 0, 0, 0, 0, 0, 0, 0, 0, 0, 0, 0, 0, 0, 0, 0, 0, 0, 0, 0, 0, 0, 0, 0, 0, 0, 0, 0, 0, 0, 0, 0, 0, 0, 0, 0, 0, 0, 0
0, 0, 50, 5, 0, 0, 0, 0, 1, 0, 12, 3, 10, 12, 20, 16, 15, 30, 29, 34, 31, 42, 60, 28, 48, 51, 46, 44, 46, 40, 42, 48, 50, 32, 28, 38, 37, 41, 31, 35, 20, 13, 19, 18, 15, 5, 1, 0, 0, 0, 0, 0, 0, 0, 0, 0, 0, 0, 0, 0, 0, 0, 0, 0, 0, 0, 0, 0, 0, 0, 0, 0, 0, 0, 0, 0, 0, 0, 0, 0, 0, 0, 0, 0, 0, 0, 0, 0, 0, 0, 0, 0, 0, 0, 0, 0, 0, 0, 0, 0, 0, 0, 0, 0, 0, 0
0, 0, 51, 1, 0, 0, 2, 0, 5, 4, 14, 5, 5, 29, 11, 22, 14, 37, 33, 35, 48, 34, 57, 45, 51, 55, 36, 43, 76, 53, 43, 44, 53, 56, 48, 40, 37, 47, 30, 30, 34, 28, 25, 14, 11, 8, 0, 0, 0, 0, 0, 0, 0, 0, 0, 0, 0, 0, 0, 0, 0, 0, 0, 0, 0, 0, 0, 0, 0, 0, 0, 0, 0, 0, 0, 0, 0, 0, 0, 0, 0, 0, 0, 0, 0, 0, 0, 0, 0, 0, 0, 0, 0, 0, 0, 0, 0, 0, 0, 0, 0, 0, 0, 0, 0, 0
0, 0, 52, 1, 0, 4, 0, 2, 4, 4, 17, 11, 24, 22, 21, 33, 25, 43, 38, 38, 57, 54, 64, 63, 64, 59, 56, 69, 74, 62, 47, 60, 60, 41, 62, 48, 45, 44, 36, 25, 33, 27, 32, 21, 21, 8, 0, 0, 0, 0, 0, 0, 0, 0, 0, 0, 0, 0, 0, 0, 0, 0, 0, 0, 0, 0, 0, 0, 0, 0, 0, 0, 0, 0, 0, 0, 0, 0, 0, 0, 0, 0, 0, 0, 0, 0, 0, 0, 0, 0, 0, 0, 0, 0, 0, 0, 0, 0, 0, 0, 0, 0, 0, 0, 0, 0
0, 0, 53, 0, 0, 1, 2, 9, 6, 6, 17, 14, 24, 39, 53, 41, 48, 53, 63, 68, 55, 86, 61, 75, 76, 68, 70, 83, 74, 87, 90, 70, 75, 56, 55, 46, 45, 60, 41, 43, 29, 31, 28, 18, 10, 9, 1, 0, 0, 0, 0, 0, 0, 0, 0, 0, 0, 0, 0, 0, 0, 0, 0, 0, 0, 0, 0, 0, 0, 0, 0, 0, 0, 0, 0, 0, 0, 0, 0, 0, 0, 0, 0, 0, 0, 0, 0, 0, 0, 0, 0, 0, 0, 0, 0, 0, 0, 0, 0, 0, 0, 0, 0, 0, 0, 0
0, 0, 54, 1, 0, 2, 1, 7, 6, 22, 30, 21, 39, 43, 53, 48, 79, 71, 90, 90, 85, 89, 105, 97, 94, 99, 109, 99, 79, 85, 82, 99, 67, 64, 73, 74, 67, 54, 49, 38, 48, 41, 30, 22, 13, 10, 0, 0, 0, 0, 0, 0, 0, 0, 0, 0, 0, 0, 0, 0, 0, 0, 0, 0, 0, 0, 0, 0, 0, 0, 0, 0, 0, 0, 0, 0, 0, 0, 0, 0, 0, 0, 0, 0, 0, 0, 0, 0, 0, 0, 0, 0, 0, 0, 0, 0, 0, 0, 0, 0, 0, 0, 0, 0, 0, 0
0, 0, 55, 1, 3, 3, 6, 9, 10, 16, 54, 30, 45, 61, 77, 74, 87, 90, 104, 118, 98, 135, 113, 118, 125, 132, 113, 107, 135, 97, 131, 100, 86, 81, 86, 90, 69, 64, 60, 64, 59, 53, 27, 26, 29, 14, 2, 0, 0, 0, 0, 0, 0, 0, 0, 0, 0, 0, 0, 0, 0, 0, 0, 0, 0, 0, 0, 0, 0, 0, 0, 0, 0, 0, 0, 0, 0, 0, 0, 0, 0, 0, 0, 0, 0, 0, 0, 0, 0, 0, 0, 0, 0, 0, 0, 0, 0, 0, 0, 0, 0, 0, 0, 0, 0, 0
0, 0, 56, 2, 2, 6, 15, 12, 17, 36, 71, 51, 64, 74, 108, 135, 123, 125, 120, 126, 147, 142, 149, 144, 126, 143, 147, 156, 106, 149, 137, 133, 108, 106, 99, 98, 87, 84, 81, 70, 57, 64, 52, 35, 36, 24, 1, 0, 0, 0, 0, 0, 0, 0, 0, 0, 0, 0, 0, 0, 0, 0, 0, 0, 0, 0, 0, 0, 0, 0, 0, 0, 0, 0, 0, 0, 0, 0, 0, 0, 0, 0, 0, 0, 0, 0, 0, 0, 0, 0, 0, 0, 0, 0, 0, 0, 0, 0, 0, 0, 0, 0, 0, 0, 0, 0
0, 0, 57, 0, 3, 9, 11, 15, 37, 33, 73, 65, 98, 103, 113, 134, 131, 156, 182, 170, 224, 179, 186, 196, 196, 181, 182, 150, 172, 183, 141, 146, 136, 129, 147, 102, 138, 85, 97, 84, 74, 54, 54, 45, 37, 11, 2, 0, 0, 0, 0, 0, 0, 0, 0, 0, 0, 0, 0, 0, 0, 0, 0, 0, 0, 0, 0, 0, 0, 0, 0, 0, 0, 0, 0, 0, 0, 0, 0, 0, 0, 0, 0, 0, 0, 0, 0, 0, 0, 0, 0, 0, 0, 0, 0, 0, 0, 0, 0, 0, 0, 0, 0, 0, 0, 0
0, 0, 58, 3, 4, 10, 8, 24, 31, 49, 100, 86, 98, 135, 162, 181, 193, 172, 211, 241, 248, 230, 230, 219, 206, 249, 223, 207, 220, 198, 187, 172, 191, 144, 146, 173, 158, 101, 108, 113, 79, 78, 70, 55, 44, 22, 1, 0, 0, 0, 0, 0, 0, 0, 0, 0, 0, 0, 0, 0, 0, 0, 0, 0, 0, 0, 0, 0, 0, 0, 0, 0, 0, 0, 0, 0, 0, 0, 0, 0, 0, 0, 0, 0, 0, 0, 0, 0, 0, 0, 0, 0, 0, 0, 0, 0, 0, 0, 0, 0, 0, 0, 0, 0, 0, 0
0, 0, 59, 1, 4, 8, 12, 24, 44, 51, 122, 103, 136, 143, 169, 184, 195, 204, 196, 245, 243, 239, 265, 252, 269, 231, 217, 230, 223, 234, 209, 187, 189, 181, 139, 168, 147, 102, 111, 99, 88, 73, 63, 49, 51, 14, 1, 0, 0, 0, 0, 0, 0, 0, 0, 0, 0, 0, 0, 0, 0, 0, 0, 0, 0, 0, 0, 0, 0, 0, 0, 0, 0, 0, 0, 0, 0, 0, 0, 0, 0, 0, 0, 0, 0, 0, 0, 0, 0, 0, 0, 0, 0, 0, 0, 0, 0, 0, 0, 0, 0, 0, 0, 0, 0, 0
0, 0, 60, 6, 7, 7, 14, 28, 35, 51, 92, 88, 117, 159, 194, 193, 181, 217, 250, 235, 241, 254, 226, 243, 236, 268, 229, 220, 230, 274, 190, 185, 165, 202, 159, 145, 137, 129, 126, 110, 89, 84, 68, 63, 34, 23, 1, 0, 0, 0, 0, 0, 0, 0, 0, 0, 0, 0, 0, 0, 0, 0, 0, 0, 0, 0, 0, 0, 0, 0, 0, 0, 0, 0, 0, 0, 0, 0, 0, 0, 0, 0, 0, 0, 0, 0, 0, 0, 0, 0, 0, 0, 0, 0, 0, 0, 0, 0, 0, 0, 0, 0, 0, 0, 0, 0
0, 0, 61, 0, 9, 15, 11, 16, 39, 70, 119, 89, 137, 132, 162, 202, 223, 198, 220, 248, 244, 246, 255, 257, 230, 257, 260, 258, 210, 198, 213, 179, 188, 152, 135, 132, 153, 124, 115, 108, 95, 68, 71, 65, 41, 23, 0, 0, 0, 0, 0, 0, 0, 0, 0, 0, 0, 0, 0, 0, 0, 0, 0, 0, 0, 0, 0, 0, 0, 0, 0, 0, 0, 0, 0, 0, 0, 0, 0, 0, 0, 0, 0, 0, 0, 0, 0, 0, 0, 0, 0, 0, 0, 0, 0, 0, 0, 0, 0, 0, 0, 0, 0, 0, 0, 0
0, 0, 62, 6, 7, 5, 9, 24, 38, 60, 97, 102, 133, 141, 164, 192, 190, 214, 229, 259, 279, 253, 241, 240, 236, 252, 229, 231, 192, 212, 192, 165, 175, 163, 164, 177, 128, 108, 94, 122, 90, 69, 71, 49, 44, 15, 1, 0, 0, 0, 0, 0, 0, 0, 0, 0, 0, 0, 0, 0, 0, 0, 0, 0, 0, 0, 0, 0, 0, 0, 0, 0, 0, 0, 0, 0, 0, 0, 0, 0, 0, 0, 0, 0, 0, 0, 0, 0, 0, 0, 0, 0, 0, 0, 0, 0, 0, 0, 0, 0, 0, 0, 0, 0, 0, 0
0, 0, 63, 3, 3, 5, 22, 31, 49, 74, 114, 105, 118, 157, 181, 225, 203, 198, 229, 246, 264, 277, 263, 265, 245, 230, 259, 243, 218, 203, 228, 185, 198, 160, 183, 123, 143, 131, 108, 87, 89, 73, 59, 31, 48, 19, 2, 0, 0, 0, 0, 0, 0, 0, 0, 0, 0, 0, 0, 0, 0, 0, 0, 0, 0, 0, 0, 0, 0, 0, 0, 0, 0, 0, 0, 0, 0, 0, 0, 0, 0, 0, 0, 0, 0, 0, 0, 0, 0, 0, 0, 0, 0, 0, 0, 0, 0, 0, 0, 0, 0, 0, 0, 0, 0, 0
0, 0, 64, 3, 6, 4, 18, 27, 50, 56, 113, 113, 95, 125, 168, 202, 208, 200, 211, 220, 228, 258, 246, 228, 252, 218, 247, 237, 219, 194, 209, 187, 207, 179, 163, 151, 134, 139, 103, 103, 102, 76, 66, 55, 47, 20, 3, 0, 0, 0, 0, 0, 0, 0, 0, 0, 0, 0, 0, 0, 0, 0, 0, 0, 0, 0, 0, 0, 0, 0, 0, 0, 0, 0, 0, 0, 0, 0, 0, 0, 0, 0, 0, 0, 0, 0, 0, 0, 0, 0, 0, 0, 0, 0, 0, 0, 0, 0, 0, 0, 0, 0, 0, 0, 0, 0
0, 0, 65, 1, 4, 8, 7, 28, 35, 49, 121, 92, 122, 141, 141, 184, 194, 214, 216, 235, 248, 242, 257, 239, 233, 275, 250, 222, 228, 203, 209, 193, 189, 166, 158, 160, 158, 151, 93, 116, 88, 86, 80, 47, 44, 20, 0, 0, 0, 0, 0, 0, 0, 0, 0, 0, 0, 0, 0, 0, 0, 0, 0, 0, 0, 0, 0, 0, 0, 0, 0, 0, 0, 0, 0, 0, 0, 0, 0, 0, 0, 0, 0, 0, 0, 0, 0, 0, 0, 0, 0, 0, 0, 0, 0, 0, 0, 0, 0, 0, 0, 0, 0, 0, 0, 0
0, 0, 66, 2, 3, 8, 10, 33, 38, 58, 99, 89, 96, 141, 146, 204, 193, 200, 226, 233, 264, 234, 225, 268, 235, 233, 235, 211, 211, 197, 185, 199, 177, 168, 176, 168, 117, 123, 125, 92, 98, 68, 62, 57, 40, 23, 1, 0, 0, 0, 0, 0, 0, 0, 0, 0, 0, 0, 0, 0, 0, 0, 0, 0, 0, 0, 0, 0, 0, 0, 0, 0, 0, 0, 0, 0, 0, 0, 0, 0, 0, 0, 0, 0, 0, 0, 0, 0, 0, 0, 0, 0, 0, 0, 0, 0, 0, 0, 0, 0, 0, 0, 0, 0, 0, 0
0, 0, 67, 2, 4, 5, 12, 26, 41, 63, 100, 89, 103, 164, 187, 202, 184, 226, 241, 252, 224, 287, 269, 285, 237, 241, 228, 215, 190, 206, 187, 204, 177, 166, 154, 133, 154, 137, 102, 112, 90, 72, 73, 59, 37, 20, 3, 0, 0, 0, 0, 0, 0, 0, 0, 0, 0, 0, 0, 0, 0, 0, 0, 0, 0, 0, 0, 0, 0, 0, 0, 0, 0, 0, 0, 0, 0, 0, 0, 0, 0, 0, 0, 0, 0, 0, 0, 0, 0, 0, 0, 0, 0, 0, 0, 0, 0, 0, 0, 0, 0, 0, 0, 0, 0, 0
0, 0, 68, 1, 5, 6, 15, 30, 47, 66, 113, 103, 108, 133, 195, 200, 197, 221, 232, 257, 254, 241, 275, 224, 247, 250, 208, 230, 199, 212, 245, 189, 179, 175, 170, 155, 138, 125, 118, 113, 97, 96, 65, 54, 39, 20, 1, 0, 0, 0, 0, 0, 0, 0, 0, 0, 0, 0, 0, 0, 0, 0, 0, 0, 0, 0, 0, 0, 0, 0, 0, 0, 0, 0, 0, 0, 0, 0, 0, 0, 0, 0, 0, 0, 0, 0, 0, 0, 0, 0, 0, 0, 0, 0, 0, 0, 0, 0, 0, 0, 0, 0, 0, 0, 0, 0
0, 0, 69, 3, 4, 8, 13, 40, 44, 46, 118, 83, 125, 125, 193, 215, 214, 218, 214, 248, 269, 261, 279, 277, 245, 235, 216, 230, 194, 195, 206, 235, 157, 137, 146, 136, 137, 124, 126, 92, 104, 84, 65, 60, 35, 17, 1, 0, 0, 0, 0, 0, 0, 0, 0, 0, 0, 0, 0, 0, 0, 0, 0, 0, 0, 0, 0, 0, 0, 0, 0, 0, 0, 0, 0, 0, 0, 0, 0, 0, 0, 0, 0, 0, 0, 0, 0, 0, 0, 0, 0, 0, 0, 0, 0, 0, 0, 0, 0, 0, 0, 0, 0, 0, 0, 0
0, 0, 70, 0, 6, 12, 15, 30, 39, 51, 136, 89, 108, 141, 190, 239, 206, 233, 249, 231, 266, 260, 246, 259, 258, 235, 219, 205, 211, 215, 204, 196, 187, 157, 146, 150, 120, 120, 104, 108, 95, 84, 72, 46, 43, 11, 0, 0, 0, 0, 0, 0, 0, 0, 0, 0, 0, 0, 0, 0, 0, 0, 0, 0, 0, 0, 0, 0, 0, 0, 0, 0, 0, 0, 0, 0, 0, 0, 0, 0, 0, 0, 0, 0, 0, 0, 0, 0, 0, 0, 0, 0, 0, 0, 0, 0, 0, 0, 0, 0, 0, 0, 0, 0, 0, 0
0, 0, 71, 3, 6, 11, 15, 16, 29, 62, 114, 69, 126, 145, 143, 168, 188, 196, 224, 258, 242, 270, 242, 230, 223, 244, 248, 224, 227, 200, 206, 181, 190, 180, 186, 157, 140, 124, 104, 98, 91, 98, 76, 60, 39, 17, 2, 0, 0, 0, 0, 0, 0, 0, 0, 0, 0, 0, 0, 0, 0, 0, 0, 0, 0, 0, 0, 0, 0, 0, 0, 0, 0, 0, 0, 0, 0, 0, 0, 0, 0, 0, 0, 0, 0, 0, 0, 0, 0, 0, 0, 0, 0, 0, 0, 0, 0, 0, 0, 0, 0, 0, 0, 0, 0, 0
0, 0, 72, 2, 7, 9, 18, 34, 34, 60, 108, 89, 96, 148, 174, 222, 196, 216, 226, 258, 258, 251, 254, 252, 243, 221, 214, 238, 207, 176, 187, 187, 203, 169, 172, 135, 126, 106, 122, 84, 97, 81, 75, 52, 40, 25, 0, 0, 0, 0, 0, 0, 0, 0, 0, 0, 0, 0, 0, 0, 0, 0, 0, 0, 0, 0, 0, 0, 0, 0, 0, 0, 0, 0, 0, 0, 0, 0, 0, 0, 0, 0, 0, 0, 0, 0, 0, 0, 0, 0, 0, 0, 0, 0, 0, 0, 0, 0, 0, 0, 0, 0, 0, 0, 0, 0
0, 0, 73, 2, 2, 8, 18, 25, 40, 41, 119, 74, 118, 167, 162, 205, 220, 217, 212, 221, 236, 275, 269, 228, 220, 264, 212, 226, 210, 215, 217, 180, 186, 161, 159, 151, 127, 137, 105, 91, 97, 84, 81, 58, 37, 25, 1, 0, 0, 0, 0, 0, 0, 0, 0, 0, 0, 0, 0, 0, 0, 0, 0, 0, 0, 0, 0, 0, 0, 0, 0, 0, 0, 0, 0, 0, 0, 0, 0, 0, 0, 0, 0, 0, 0, 0, 0, 0, 0, 0, 0, 0, 0, 0, 0, 0, 0, 0, 0, 0, 0, 0, 0, 0, 0, 0
0, 0, 74, 0, 1, 10, 10, 17, 54, 52, 104, 84, 104, 153, 174, 197, 214, 206, 220, 251, 255, 247, 223, 252, 230, 234, 222, 228, 244, 216, 185, 166, 176, 177, 160, 148, 126, 136, 124, 106, 113, 79, 58, 63, 43, 13, 2, 0, 0, 0, 0, 0, 0, 0, 0, 0, 0, 0, 0, 0, 0, 0, 0, 0, 0, 0, 0, 0, 0, 0, 0, 0, 0, 0, 0, 0, 0, 0, 0, 0, 0, 0, 0, 0, 0, 0, 0, 0, 0, 0, 0, 0, 0, 0, 0, 0, 0, 0, 0, 0, 0, 0, 0, 0, 0, 0
0, 0, 75, 1, 4, 10, 22, 26, 52, 54, 118, 87, 104, 148, 178, 219, 208, 167, 224, 245, 245, 251, 255, 263, 267, 245, 241, 241, 213, 222, 202, 199, 205, 179, 176, 152, 139, 114, 116, 115, 66, 92, 67, 57, 25, 13, 2, 0, 0, 0, 0, 0, 0, 0, 0, 0, 0, 0, 0, 0, 0, 0, 0, 0, 0, 0, 0, 0, 0, 0, 0, 0, 0, 0, 0, 0, 0, 0, 0, 0, 0, 0, 0, 0, 0, 0, 0, 0, 0, 0, 0, 0, 0, 0, 0, 0, 0, 0, 0, 0, 0, 0, 0, 0, 0, 0
0, 0, 76, 3, 6, 11, 18, 26, 49, 65, 110, 102, 125, 154, 167, 173, 181, 225, 218, 238, 273, 244, 246, 260, 249, 217, 240, 226, 224, 204, 197, 174, 175, 186, 175, 142, 133, 137, 109, 107, 84, 74, 61, 46, 45, 21, 0, 0, 0, 0, 0, 0, 0, 0, 0, 0, 0, 0, 0, 0, 0, 0, 0, 0, 0, 0, 0, 0, 0, 0, 0, 0, 0, 0, 0, 0, 0, 0, 0, 0, 0, 0, 0, 0, 0, 0, 0, 0, 0, 0, 0, 0, 0, 0, 0, 0, 0, 0, 0, 0, 0, 0, 0, 0, 0, 0
0, 0, 77, 2, 2, 6, 18, 23, 44, 57, 103, 90, 114, 135, 157, 212, 209, 202, 207, 246, 244, 227, 247, 257, 220, 245, 258, 246, 227, 184, 198, 217, 168, 184, 126, 137, 138, 119, 111, 103, 87, 88, 73, 60, 40, 20, 1, 0, 0, 0, 0, 0, 0, 0, 0, 0, 0, 0, 0, 0, 0, 0, 0, 0, 0, 0, 0, 0, 0, 0, 0, 0, 0, 0, 0, 0, 0, 0, 0, 0, 0, 0, 0, 0, 0, 0, 0, 0, 0, 0, 0, 0, 0, 0, 0, 0, 0, 0, 0, 0, 0, 0, 0, 0, 0, 0
