# TOPAS Version: 3.1.p3
# Parameter File: REDLEN_small_phantom_mc_basic_4cm.txt
# Results for scorer PhantomDose
# Scored on surface: CdTeCrystal1/YPlusSurface
# X in 100 bins of 0.03332 cm
# Y in 1 bin  of 0.4 cm
# Z in 100 bins of 0.0375 cm
# SurfaceTrackCount : Sum   
# Binned by incident track energy in 100 bins of 0.00104 MeV from 0.016 MeV to 0.12 MeV
# First bin is underflow, next to last bin is overflow, last bin is for case of no incident track.
0, 0, 0, 0, 0, 0, 1, 0, 1, 0, 3, 1, 0, 0, 1, 1, 1, 0, 4, 3, 4, 4, 2, 3, 4, 2, 7, 0, 2, 4, 2, 0, 0, 3, 1, 0, 1, 2, 0, 2, 2, 1, 1, 2, 0, 1, 0, 0, 0, 0, 0, 0, 0, 0, 0, 0, 0, 0, 0, 0, 0, 0, 0, 0, 0, 0, 0, 0, 0, 0, 0, 0, 0, 0, 0, 0, 0, 0, 0, 0, 0, 0, 0, 0, 0, 0, 0, 0, 0, 0, 0, 0, 0, 0, 0, 0, 0, 0, 0, 0, 0, 0, 0, 0, 0, 0
0, 0, 1, 0, 0, 0, 0, 0, 0, 0, 0, 0, 0, 1, 2, 1, 0, 1, 2, 3, 1, 3, 4, 1, 3, 4, 4, 3, 5, 4, 5, 6, 2, 4, 1, 2, 2, 2, 0, 2, 0, 0, 2, 1, 1, 0, 0, 0, 0, 0, 0, 0, 0, 0, 0, 0, 0, 0, 0, 0, 0, 0, 0, 0, 0, 0, 0, 0, 0, 0, 0, 0, 0, 0, 0, 0, 0, 0, 0, 0, 0, 0, 0, 0, 0, 0, 0, 0, 0, 0, 0, 0, 0, 0, 0, 0, 0, 0, 0, 0, 0, 0, 0, 0, 0, 0
0, 0, 2, 0, 0, 0, 1, 0, 0, 1, 1, 1, 1, 1, 0, 2, 3, 4, 2, 3, 2, 2, 4, 2, 2, 1, 0, 3, 4, 3, 4, 2, 2, 3, 1, 2, 4, 3, 2, 0, 0, 1, 1, 2, 0, 0, 0, 0, 0, 0, 0, 0, 0, 0, 0, 0, 0, 0, 0, 0, 0, 0, 0, 0, 0, 0, 0, 0, 0, 0, 0, 0, 0, 0, 0, 0, 0, 0, 0, 0, 0, 0, 0, 0, 0, 0, 0, 0, 0, 0, 0, 0, 0, 0, 0, 0, 0, 0, 0, 0, 0, 0, 0, 0, 0, 0
0, 0, 3, 0, 0, 0, 0, 0, 0, 0, 0, 0, 0, 0, 0, 3, 0, 0, 4, 2, 2, 1, 2, 2, 1, 0, 3, 1, 6, 5, 1, 1, 3, 1, 1, 0, 1, 0, 1, 1, 0, 2, 0, 0, 0, 0, 0, 0, 0, 0, 0, 0, 0, 0, 0, 0, 0, 0, 0, 0, 0, 0, 0, 0, 0, 0, 0, 0, 0, 0, 0, 0, 0, 0, 0, 0, 0, 0, 0, 0, 0, 0, 0, 0, 0, 0, 0, 0, 0, 0, 0, 0, 0, 0, 0, 0, 0, 0, 0, 0, 0, 0, 0, 0, 0, 0
0, 0, 4, 0, 0, 0, 0, 0, 0, 0, 1, 1, 1, 3, 1, 1, 2, 2, 5, 1, 3, 5, 2, 1, 0, 3, 4, 1, 2, 4, 2, 1, 4, 1, 3, 1, 4, 1, 3, 0, 0, 2, 0, 0, 0, 0, 0, 0, 0, 0, 0, 0, 0, 0, 0, 0, 0, 0, 0, 0, 0, 0, 0, 0, 0, 0, 0, 0, 0, 0, 0, 0, 0, 0, 0, 0, 0, 0, 0, 0, 0, 0, 0, 0, 0, 0, 0, 0, 0, 0, 0, 0, 0, 0, 0, 0, 0, 0, 0, 0, 0, 0, 0, 0, 0, 0
0, 0, 5, 0, 1, 1, 9, 12, 16, 19, 52, 36, 55, 60, 85, 78, 91, 96, 99, 99, 122, 87, 109, 115, 99, 132, 103, 103, 106, 106, 94, 77, 73, 69, 73, 65, 69, 62, 41, 39, 46, 42, 19, 19, 9, 8, 1, 0, 0, 0, 0, 0, 0, 0, 0, 0, 0, 0, 0, 0, 0, 0, 0, 0, 0, 0, 0, 0, 0, 0, 0, 0, 0, 0, 0, 0, 0, 0, 0, 0, 0, 0, 0, 0, 0, 0, 0, 0, 0, 0, 0, 0, 0, 0, 0, 0, 0, 0, 0, 0, 0, 0, 0, 0, 0, 0
0, 0, 6, 2, 1, 5, 16, 20, 39, 60, 121, 97, 106, 163, 188, 204, 165, 203, 215, 262, 236, 243, 263, 243, 240, 237, 231, 232, 230, 189, 217, 187, 167, 187, 157, 148, 145, 123, 113, 95, 71, 82, 64, 60, 48, 33, 0, 0, 0, 0, 0, 0, 0, 0, 0, 0, 0, 0, 0, 0, 0, 0, 0, 0, 0, 0, 0, 0, 0, 0, 0, 0, 0, 0, 0, 0, 0, 0, 0, 0, 0, 0, 0, 0, 0, 0, 0, 0, 0, 0, 0, 0, 0, 0, 0, 0, 0, 0, 0, 0, 0, 0, 0, 0, 0, 0
0, 0, 7, 3, 0, 11, 13, 19, 36, 47, 129, 103, 108, 137, 170, 195, 198, 189, 216, 254, 265, 232, 253, 264, 244, 216, 210, 216, 231, 222, 208, 169, 191, 155, 144, 158, 123, 114, 119, 102, 92, 83, 66, 46, 41, 19, 0, 0, 0, 0, 0, 0, 0, 0, 0, 0, 0, 0, 0, 0, 0, 0, 0, 0, 0, 0, 0, 0, 0, 0, 0, 0, 0, 0, 0, 0, 0, 0, 0, 0, 0, 0, 0, 0, 0, 0, 0, 0, 0, 0, 0, 0, 0, 0, 0, 0, 0, 0, 0, 0, 0, 0, 0, 0, 0, 0
0, 0, 8, 0, 8, 4, 7, 39, 35, 53, 132, 94, 115, 143, 187, 192, 186, 212, 222, 229, 240, 245, 274, 234, 207, 228, 224, 245, 203, 202, 200, 200, 181, 175, 142, 163, 149, 116, 109, 115, 78, 70, 57, 55, 35, 18, 2, 0, 0, 0, 0, 0, 0, 0, 0, 0, 0, 0, 0, 0, 0, 0, 0, 0, 0, 0, 0, 0, 0, 0, 0, 0, 0, 0, 0, 0, 0, 0, 0, 0, 0, 0, 0, 0, 0, 0, 0, 0, 0, 0, 0, 0, 0, 0, 0, 0, 0, 0, 0, 0, 0, 0, 0, 0, 0, 0
0, 0, 9, 4, 6, 9, 13, 19, 36, 58, 118, 91, 110, 137, 178, 177, 187, 189, 236, 241, 209, 236, 234, 212, 266, 228, 225, 207, 218, 193, 214, 186, 168, 165, 170, 148, 130, 126, 102, 109, 87, 95, 77, 45, 44, 12, 0, 0, 0, 0, 0, 0, 0, 0, 0, 0, 0, 0, 0, 0, 0, 0, 0, 0, 0, 0, 0, 0, 0, 0, 0, 0, 0, 0, 0, 0, 0, 0, 0, 0, 0, 0, 0, 0, 0, 0, 0, 0, 0, 0, 0, 0, 0, 0, 0, 0, 0, 0, 0, 0, 0, 0, 0, 0, 0, 0
0, 0, 10, 0, 2, 10, 8, 24, 47, 71, 130, 97, 105, 136, 196, 200, 202, 220, 231, 240, 254, 272, 235, 244, 249, 263, 254, 193, 199, 210, 180, 198, 175, 183, 178, 140, 137, 105, 113, 95, 90, 73, 63, 59, 44, 22, 3, 0, 0, 0, 0, 0, 0, 0, 0, 0, 0, 0, 0, 0, 0, 0, 0, 0, 0, 0, 0, 0, 0, 0, 0, 0, 0, 0, 0, 0, 0, 0, 0, 0, 0, 0, 0, 0, 0, 0, 0, 0, 0, 0, 0, 0, 0, 0, 0, 0, 0, 0, 0, 0, 0, 0, 0, 0, 0, 0
0, 0, 11, 2, 4, 5, 17, 27, 47, 51, 122, 85, 106, 135, 160, 206, 193, 217, 237, 209, 258, 253, 243, 232, 209, 242, 250, 243, 241, 216, 230, 218, 182, 163, 156, 160, 143, 131, 115, 103, 83, 91, 59, 51, 42, 20, 2, 0, 0, 0, 0, 0, 0, 0, 0, 0, 0, 0, 0, 0, 0, 0, 0, 0, 0, 0, 0, 0, 0, 0, 0, 0, 0, 0, 0, 0, 0, 0, 0, 0, 0, 0, 0, 0, 0, 0, 0, 0, 0, 0, 0, 0, 0, 0, 0, 0, 0, 0, 0, 0, 0, 0, 0, 0, 0, 0
0, 0, 12, 4, 6, 9, 15, 22, 34, 48, 134, 89, 113, 141, 168, 197, 229, 238, 221, 227, 256, 222, 245, 249, 228, 234, 238, 232, 201, 202, 220, 168, 212, 149, 174, 156, 146, 111, 107, 105, 78, 73, 67, 45, 44, 26, 1, 0, 0, 0, 0, 0, 0, 0, 0, 0, 0, 0, 0, 0, 0, 0, 0, 0, 0, 0, 0, 0, 0, 0, 0, 0, 0, 0, 0, 0, 0, 0, 0, 0, 0, 0, 0, 0, 0, 0, 0, 0, 0, 0, 0, 0, 0, 0, 0, 0, 0, 0, 0, 0, 0, 0, 0, 0, 0, 0
0, 0, 13, 3, 4, 10, 13, 15, 33, 55, 111, 96, 105, 148, 174, 212, 179, 207, 209, 254, 242, 253, 258, 237, 255, 248, 236, 229, 192, 216, 201, 163, 196, 186, 155, 134, 134, 127, 98, 89, 98, 69, 72, 41, 50, 19, 1, 0, 0, 0, 0, 0, 0, 0, 0, 0, 0, 0, 0, 0, 0, 0, 0, 0, 0, 0, 0, 0, 0, 0, 0, 0, 0, 0, 0, 0, 0, 0, 0, 0, 0, 0, 0, 0, 0, 0, 0, 0, 0, 0, 0, 0, 0, 0, 0, 0, 0, 0, 0, 0, 0, 0, 0, 0, 0, 0
0, 0, 14, 3, 4, 7, 18, 21, 34, 50, 132, 111, 98, 136, 165, 176, 182, 212, 215, 242, 276, 248, 253, 227, 259, 240, 232, 220, 229, 207, 185, 198, 173, 152, 131, 132, 136, 90, 99, 103, 78, 76, 66, 44, 39, 22, 0, 0, 0, 0, 0, 0, 0, 0, 0, 0, 0, 0, 0, 0, 0, 0, 0, 0, 0, 0, 0, 0, 0, 0, 0, 0, 0, 0, 0, 0, 0, 0, 0, 0, 0, 0, 0, 0, 0, 0, 0, 0, 0, 0, 0, 0, 0, 0, 0, 0, 0, 0, 0, 0, 0, 0, 0, 0, 0, 0
0, 0, 15, 3, 1, 10, 17, 25, 38, 39, 106, 85, 99, 157, 166, 201, 195, 201, 229, 251, 226, 258, 292, 262, 220, 272, 246, 238, 257, 192, 195, 194, 186, 167, 186, 143, 138, 161, 101, 111, 111, 73, 66, 58, 47, 9, 0, 0, 0, 0, 0, 0, 0, 0, 0, 0, 0, 0, 0, 0, 0, 0, 0, 0, 0, 0, 0, 0, 0, 0, 0, 0, 0, 0, 0, 0, 0, 0, 0, 0, 0, 0, 0, 0, 0, 0, 0, 0, 0, 0, 0, 0, 0, 0, 0, 0, 0, 0, 0, 0, 0, 0, 0, 0, 0, 0
0, 0, 16, 2, 1, 11, 10, 20, 38, 58, 122, 88, 124, 153, 171, 227, 228, 236, 234, 228, 253, 261, 229, 225, 241, 263, 239, 194, 222, 189, 220, 201, 201, 151, 134, 135, 132, 113, 103, 115, 82, 70, 53, 62, 35, 16, 3, 0, 0, 0, 0, 0, 0, 0, 0, 0, 0, 0, 0, 0, 0, 0, 0, 0, 0, 0, 0, 0, 0, 0, 0, 0, 0, 0, 0, 0, 0, 0, 0, 0, 0, 0, 0, 0, 0, 0, 0, 0, 0, 0, 0, 0, 0, 0, 0, 0, 0, 0, 0, 0, 0, 0, 0, 0, 0, 0
0, 0, 17, 4, 4, 5, 18, 21, 47, 52, 110, 94, 107, 158, 161, 197, 218, 216, 228, 247, 204, 243, 256, 260, 236, 258, 241, 190, 227, 214, 206, 201, 173, 193, 153, 142, 134, 146, 123, 86, 83, 88, 88, 61, 48, 16, 0, 0, 0, 0, 0, 0, 0, 0, 0, 0, 0, 0, 0, 0, 0, 0, 0, 0, 0, 0, 0, 0, 0, 0, 0, 0, 0, 0, 0, 0, 0, 0, 0, 0, 0, 0, 0, 0, 0, 0, 0, 0, 0, 0, 0, 0, 0, 0, 0, 0, 0, 0, 0, 0, 0, 0, 0, 0, 0, 0
0, 0, 18, 0, 5, 7, 17, 22, 34, 54, 120, 81, 101, 145, 150, 185, 176, 228, 216, 248, 249, 250, 266, 258, 247, 240, 231, 234, 205, 232, 197, 197, 186, 179, 159, 145, 128, 133, 116, 95, 89, 82, 70, 45, 35, 15, 0, 0, 0, 0, 0, 0, 0, 0, 0, 0, 0, 0, 0, 0, 0, 0, 0, 0, 0, 0, 0, 0, 0, 0, 0, 0, 0, 0, 0, 0, 0, 0, 0, 0, 0, 0, 0, 0, 0, 0, 0, 0, 0, 0, 0, 0, 0, 0, 0, 0, 0, 0, 0, 0, 0, 0, 0, 0, 0, 0
0, 0, 19, 0, 6, 9, 16, 21, 27, 60, 118, 100, 122, 140, 192, 214, 178, 226, 209, 245, 234, 272, 290, 243, 205, 222, 216, 216, 201, 178, 214, 178, 173, 154, 144, 135, 135, 144, 124, 136, 80, 103, 70, 63, 43, 15, 0, 0, 0, 0, 0, 0, 0, 0, 0, 0, 0, 0, 0, 0, 0, 0, 0, 0, 0, 0, 0, 0, 0, 0, 0, 0, 0, 0, 0, 0, 0, 0, 0, 0, 0, 0, 0, 0, 0, 0, 0, 0, 0, 0, 0, 0, 0, 0, 0, 0, 0, 0, 0, 0, 0, 0, 0, 0, 0, 0
0, 0, 20, 0, 6, 10, 28, 17, 27, 56, 114, 92, 123, 142, 188, 193, 206, 200, 231, 253, 257, 242, 246, 258, 240, 258, 217, 198, 214, 210, 186, 206, 181, 153, 153, 168, 111, 120, 120, 92, 87, 77, 54, 48, 39, 24, 2, 0, 0, 0, 0, 0, 0, 0, 0, 0, 0, 0, 0, 0, 0, 0, 0, 0, 0, 0, 0, 0, 0, 0, 0, 0, 0, 0, 0, 0, 0, 0, 0, 0, 0, 0, 0, 0, 0, 0, 0, 0, 0, 0, 0, 0, 0, 0, 0, 0, 0, 0, 0, 0, 0, 0, 0, 0, 0, 0
0, 0, 21, 0, 5, 4, 13, 25, 39, 47, 112, 74, 115, 144, 176, 209, 215, 228, 214, 253, 216, 236, 231, 230, 263, 247, 215, 209, 228, 246, 184, 168, 175, 148, 150, 129, 137, 151, 114, 104, 96, 87, 56, 61, 50, 19, 1, 0, 0, 0, 0, 0, 0, 0, 0, 0, 0, 0, 0, 0, 0, 0, 0, 0, 0, 0, 0, 0, 0, 0, 0, 0, 0, 0, 0, 0, 0, 0, 0, 0, 0, 0, 0, 0, 0, 0, 0, 0, 0, 0, 0, 0, 0, 0, 0, 0, 0, 0, 0, 0, 0, 0, 0, 0, 0, 0
0, 0, 22, 3, 3, 13, 12, 23, 33, 49, 112, 100, 103, 134, 199, 200, 203, 225, 208, 250, 216, 245, 252, 252, 268, 226, 215, 212, 237, 215, 204, 207, 161, 175, 169, 137, 133, 110, 110, 103, 89, 70, 69, 57, 53, 17, 0, 0, 0, 0, 0, 0, 0, 0, 0, 0, 0, 0, 0, 0, 0, 0, 0, 0, 0, 0, 0, 0, 0, 0, 0, 0, 0, 0, 0, 0, 0, 0, 0, 0, 0, 0, 0, 0, 0, 0, 0, 0, 0, 0, 0, 0, 0, 0, 0, 0, 0, 0, 0, 0, 0, 0, 0, 0, 0, 0
0, 0, 23, 2, 0, 8, 13, 24, 27, 65, 127, 91, 111, 137, 154, 216, 182, 204, 210, 225, 276, 251, 275, 219, 260, 256, 220, 244, 191, 231, 211, 181, 172, 151, 141, 143, 120, 117, 98, 117, 73, 75, 93, 50, 44, 23, 0, 0, 0, 0, 0, 0, 0, 0, 0, 0, 0, 0, 0, 0, 0, 0, 0, 0, 0, 0, 0, 0, 0, 0, 0, 0, 0, 0, 0, 0, 0, 0, 0, 0, 0, 0, 0, 0, 0, 0, 0, 0, 0, 0, 0, 0, 0, 0, 0, 0, 0, 0, 0, 0, 0, 0, 0, 0, 0, 0
0, 0, 24, 5, 5, 3, 11, 24, 44, 62, 122, 85, 122, 154, 157, 210, 178, 219, 245, 246, 258, 254, 247, 269, 240, 240, 215, 216, 217, 223, 201, 207, 170, 192, 152, 141, 126, 117, 92, 103, 93, 80, 66, 54, 46, 22, 1, 0, 0, 0, 0, 0, 0, 0, 0, 0, 0, 0, 0, 0, 0, 0, 0, 0, 0, 0, 0, 0, 0, 0, 0, 0, 0, 0, 0, 0, 0, 0, 0, 0, 0, 0, 0, 0, 0, 0, 0, 0, 0, 0, 0, 0, 0, 0, 0, 0, 0, 0, 0, 0, 0, 0, 0, 0, 0, 0
0, 0, 25, 3, 7, 9, 11, 19, 57, 48, 107, 112, 101, 155, 181, 195, 204, 236, 210, 217, 235, 246, 261, 245, 263, 237, 249, 248, 192, 225, 215, 179, 189, 163, 160, 127, 132, 127, 104, 111, 97, 76, 64, 44, 34, 25, 0, 0, 0, 0, 0, 0, 0, 0, 0, 0, 0, 0, 0, 0, 0, 0, 0, 0, 0, 0, 0, 0, 0, 0, 0, 0, 0, 0, 0, 0, 0, 0, 0, 0, 0, 0, 0, 0, 0, 0, 0, 0, 0, 0, 0, 0, 0, 0, 0, 0, 0, 0, 0, 0, 0, 0, 0, 0, 0, 0
0, 0, 26, 0, 7, 10, 11, 32, 29, 61, 91, 94, 105, 144, 175, 188, 194, 192, 222, 220, 235, 254, 266, 243, 256, 231, 219, 220, 208, 228, 244, 165, 145, 161, 152, 124, 161, 97, 98, 102, 90, 71, 70, 44, 42, 10, 3, 0, 0, 0, 0, 0, 0, 0, 0, 0, 0, 0, 0, 0, 0, 0, 0, 0, 0, 0, 0, 0, 0, 0, 0, 0, 0, 0, 0, 0, 0, 0, 0, 0, 0, 0, 0, 0, 0, 0, 0, 0, 0, 0, 0, 0, 0, 0, 0, 0, 0, 0, 0, 0, 0, 0, 0, 0, 0, 0
0, 0, 27, 0, 4, 6, 15, 26, 52, 61, 113, 89, 108, 158, 154, 201, 178, 199, 234, 232, 269, 291, 239, 246, 248, 229, 227, 259, 219, 188, 191, 198, 203, 165, 148, 143, 158, 114, 115, 97, 97, 70, 53, 60, 36, 17, 2, 0, 0, 0, 0, 0, 0, 0, 0, 0, 0, 0, 0, 0, 0, 0, 0, 0, 0, 0, 0, 0, 0, 0, 0, 0, 0, 0, 0, 0, 0, 0, 0, 0, 0, 0, 0, 0, 0, 0, 0, 0, 0, 0, 0, 0, 0, 0, 0, 0, 0, 0, 0, 0, 0, 0, 0, 0, 0, 0
0, 0, 28, 3, 3, 3, 14, 21, 49, 63, 136, 93, 108, 167, 195, 190, 239, 186, 233, 230, 257, 260, 233, 266, 244, 234, 248, 235, 199, 195, 201, 170, 186, 146, 171, 151, 136, 97, 108, 116, 85, 78, 63, 65, 31, 27, 0, 0, 0, 0, 0, 0, 0, 0, 0, 0, 0, 0, 0, 0, 0, 0, 0, 0, 0, 0, 0, 0, 0, 0, 0, 0, 0, 0, 0, 0, 0, 0, 0, 0, 0, 0, 0, 0, 0, 0, 0, 0, 0, 0, 0, 0, 0, 0, 0, 0, 0, 0, 0, 0, 0, 0, 0, 0, 0, 0
0, 0, 29, 1, 3, 10, 13, 22, 35, 45, 149, 96, 119, 126, 138, 207, 218, 211, 240, 255, 236, 259, 257, 225, 229, 246, 225, 216, 201, 204, 190, 180, 186, 187, 157, 147, 149, 129, 116, 119, 82, 62, 67, 48, 44, 21, 0, 0, 0, 0, 0, 0, 0, 0, 0, 0, 0, 0, 0, 0, 0, 0, 0, 0, 0, 0, 0, 0, 0, 0, 0, 0, 0, 0, 0, 0, 0, 0, 0, 0, 0, 0, 0, 0, 0, 0, 0, 0, 0, 0, 0, 0, 0, 0, 0, 0, 0, 0, 0, 0, 0, 0, 0, 0, 0, 0
0, 0, 30, 0, 4, 5, 12, 23, 54, 58, 98, 106, 127, 155, 182, 213, 200, 187, 222, 203, 240, 221, 253, 242, 220, 242, 230, 243, 219, 201, 180, 179, 162, 149, 163, 177, 147, 116, 125, 103, 92, 85, 90, 47, 47, 20, 1, 0, 0, 0, 0, 0, 0, 0, 0, 0, 0, 0, 0, 0, 0, 0, 0, 0, 0, 0, 0, 0, 0, 0, 0, 0, 0, 0, 0, 0, 0, 0, 0, 0, 0, 0, 0, 0, 0, 0, 0, 0, 0, 0, 0, 0, 0, 0, 0, 0, 0, 0, 0, 0, 0, 0, 0, 0, 0, 0
0, 0, 31, 7, 4, 8, 12, 20, 37, 44, 119, 108, 105, 154, 158, 191, 200, 217, 244, 218, 232, 247, 276, 264, 238, 213, 237, 212, 227, 214, 195, 199, 155, 168, 175, 150, 156, 143, 131, 108, 84, 85, 74, 43, 42, 24, 0, 0, 0, 0, 0, 0, 0, 0, 0, 0, 0, 0, 0, 0, 0, 0, 0, 0, 0, 0, 0, 0, 0, 0, 0, 0, 0, 0, 0, 0, 0, 0, 0, 0, 0, 0, 0, 0, 0, 0, 0, 0, 0, 0, 0, 0, 0, 0, 0, 0, 0, 0, 0, 0, 0, 0, 0, 0, 0, 0
0, 0, 32, 0, 4, 4, 20, 24, 42, 58, 120, 87, 116, 151, 166, 192, 192, 225, 228, 257, 229, 241, 233, 241, 252, 213, 222, 257, 230, 214, 192, 182, 180, 163, 175, 158, 130, 143, 122, 113, 57, 83, 65, 53, 33, 18, 2, 0, 0, 0, 0, 0, 0, 0, 0, 0, 0, 0, 0, 0, 0, 0, 0, 0, 0, 0, 0, 0, 0, 0, 0, 0, 0, 0, 0, 0, 0, 0, 0, 0, 0, 0, 0, 0, 0, 0, 0, 0, 0, 0, 0, 0, 0, 0, 0, 0, 0, 0, 0, 0, 0, 0, 0, 0, 0, 0
0, 0, 33, 0, 4, 9, 19, 28, 47, 58, 122, 85, 117, 158, 148, 220, 202, 244, 221, 216, 238, 250, 255, 252, 253, 236, 245, 240, 232, 211, 232, 189, 178, 174, 163, 129, 129, 126, 129, 99, 80, 79, 57, 63, 27, 20, 0, 0, 0, 0, 0, 0, 0, 0, 0, 0, 0, 0, 0, 0, 0, 0, 0, 0, 0, 0, 0, 0, 0, 0, 0, 0, 0, 0, 0, 0, 0, 0, 0, 0, 0, 0, 0, 0, 0, 0, 0, 0, 0, 0, 0, 0, 0, 0, 0, 0, 0, 0, 0, 0, 0, 0, 0, 0, 0, 0
0, 0, 34, 3, 3, 12, 18, 19, 38, 46, 121, 121, 105, 134, 154, 217, 182, 223, 238, 255, 243, 242, 254, 263, 209, 226, 209, 216, 229, 201, 190, 199, 211, 159, 148, 165, 140, 120, 131, 100, 94, 83, 75, 54, 44, 12, 1, 0, 0, 0, 0, 0, 0, 0, 0, 0, 0, 0, 0, 0, 0, 0, 0, 0, 0, 0, 0, 0, 0, 0, 0, 0, 0, 0, 0, 0, 0, 0, 0, 0, 0, 0, 0, 0, 0, 0, 0, 0, 0, 0, 0, 0, 0, 0, 0, 0, 0, 0, 0, 0, 0, 0, 0, 0, 0, 0
0, 0, 35, 2, 4, 12, 14, 31, 35, 58, 141, 115, 112, 143, 175, 194, 193, 233, 231, 250, 253, 280, 241, 255, 270, 226, 221, 236, 222, 211, 209, 166, 181, 165, 178, 154, 141, 121, 111, 108, 96, 83, 87, 56, 39, 30, 3, 0, 0, 0, 0, 0, 0, 0, 0, 0, 0, 0, 0, 0, 0, 0, 0, 0, 0, 0, 0, 0, 0, 0, 0, 0, 0, 0, 0, 0, 0, 0, 0, 0, 0, 0, 0, 0, 0, 0, 0, 0, 0, 0, 0, 0, 0, 0, 0, 0, 0, 0, 0, 0, 0, 0, 0, 0, 0, 0
0, 0, 36, 2, 6, 10, 18, 24, 45, 51, 129, 103, 127, 159, 167, 240, 208, 193, 225, 267, 220, 226, 242, 224, 252, 252, 247, 197, 234, 187, 194, 215, 170, 170, 156, 151, 141, 157, 97, 101, 106, 80, 74, 46, 37, 13, 0, 0, 0, 0, 0, 0, 0, 0, 0, 0, 0, 0, 0, 0, 0, 0, 0, 0, 0, 0, 0, 0, 0, 0, 0, 0, 0, 0, 0, 0, 0, 0, 0, 0, 0, 0, 0, 0, 0, 0, 0, 0, 0, 0, 0, 0, 0, 0, 0, 0, 0, 0, 0, 0, 0, 0, 0, 0, 0, 0
0, 0, 37, 0, 4, 4, 14, 24, 39, 65, 126, 91, 143, 149, 171, 211, 184, 214, 232, 255, 207, 233, 251, 254, 226, 231, 200, 245, 215, 205, 211, 166, 157, 173, 190, 152, 156, 129, 122, 121, 97, 96, 60, 52, 52, 23, 0, 0, 0, 0, 0, 0, 0, 0, 0, 0, 0, 0, 0, 0, 0, 0, 0, 0, 0, 0, 0, 0, 0, 0, 0, 0, 0, 0, 0, 0, 0, 0, 0, 0, 0, 0, 0, 0, 0, 0, 0, 0, 0, 0, 0, 0, 0, 0, 0, 0, 0, 0, 0, 0, 0, 0, 0, 0, 0, 0
0, 0, 38, 5, 2, 8, 10, 25, 32, 42, 113, 103, 102, 147, 177, 185, 178, 203, 230, 239, 251, 247, 247, 260, 237, 244, 230, 239, 200, 218, 196, 189, 163, 174, 177, 151, 158, 125, 126, 91, 92, 86, 62, 47, 46, 22, 0, 0, 0, 0, 0, 0, 0, 0, 0, 0, 0, 0, 0, 0, 0, 0, 0, 0, 0, 0, 0, 0, 0, 0, 0, 0, 0, 0, 0, 0, 0, 0, 0, 0, 0, 0, 0, 0, 0, 0, 0, 0, 0, 0, 0, 0, 0, 0, 0, 0, 0, 0, 0, 0, 0, 0, 0, 0, 0, 0
0, 0, 39, 3, 4, 5, 8, 14, 30, 53, 125, 104, 104, 141, 158, 186, 204, 211, 225, 248, 243, 253, 258, 269, 222, 267, 239, 241, 207, 201, 205, 204, 170, 189, 152, 140, 133, 129, 98, 104, 85, 86, 58, 72, 42, 28, 0, 0, 0, 0, 0, 0, 0, 0, 0, 0, 0, 0, 0, 0, 0, 0, 0, 0, 0, 0, 0, 0, 0, 0, 0, 0, 0, 0, 0, 0, 0, 0, 0, 0, 0, 0, 0, 0, 0, 0, 0, 0, 0, 0, 0, 0, 0, 0, 0, 0, 0, 0, 0, 0, 0, 0, 0, 0, 0, 0
0, 0, 40, 1, 1, 11, 11, 21, 44, 61, 105, 91, 128, 147, 179, 173, 167, 227, 218, 238, 253, 249, 227, 232, 245, 232, 233, 232, 192, 240, 180, 186, 166, 180, 140, 148, 117, 118, 103, 96, 107, 81, 66, 65, 48, 13, 2, 0, 0, 0, 0, 0, 0, 0, 0, 0, 0, 0, 0, 0, 0, 0, 0, 0, 0, 0, 0, 0, 0, 0, 0, 0, 0, 0, 0, 0, 0, 0, 0, 0, 0, 0, 0, 0, 0, 0, 0, 0, 0, 0, 0, 0, 0, 0, 0, 0, 0, 0, 0, 0, 0, 0, 0, 0, 0, 0
0, 0, 41, 1, 2, 5, 14, 30, 40, 60, 87, 80, 95, 115, 164, 170, 173, 197, 193, 208, 214, 244, 200, 222, 233, 231, 192, 188, 193, 208, 191, 167, 142, 144, 140, 149, 130, 103, 119, 89, 101, 60, 56, 52, 34, 26, 2, 0, 0, 0, 0, 0, 0, 0, 0, 0, 0, 0, 0, 0, 0, 0, 0, 0, 0, 0, 0, 0, 0, 0, 0, 0, 0, 0, 0, 0, 0, 0, 0, 0, 0, 0, 0, 0, 0, 0, 0, 0, 0, 0, 0, 0, 0, 0, 0, 0, 0, 0, 0, 0, 0, 0, 0, 0, 0, 0
0, 0, 42, 1, 6, 1, 8, 10, 25, 48, 76, 59, 76, 101, 150, 142, 141, 156, 160, 201, 167, 205, 193, 169, 151, 152, 179, 155, 174, 129, 128, 131, 119, 117, 124, 112, 103, 88, 78, 77, 64, 57, 55, 46, 30, 14, 1, 0, 0, 0, 0, 0, 0, 0, 0, 0, 0, 0, 0, 0, 0, 0, 0, 0, 0, 0, 0, 0, 0, 0, 0, 0, 0, 0, 0, 0, 0, 0, 0, 0, 0, 0, 0, 0, 0, 0, 0, 0, 0, 0, 0, 0, 0, 0, 0, 0, 0, 0, 0, 0, 0, 0, 0, 0, 0, 0
0, 0, 43, 3, 2, 2, 8, 17, 18, 34, 50, 55, 56, 78, 87, 97, 121, 138, 117, 121, 146, 174, 154, 156, 139, 127, 135, 124, 144, 114, 131, 124, 132, 103, 97, 94, 78, 73, 63, 72, 59, 53, 42, 37, 29, 19, 2, 0, 0, 0, 0, 0, 0, 0, 0, 0, 0, 0, 0, 0, 0, 0, 0, 0, 0, 0, 0, 0, 0, 0, 0, 0, 0, 0, 0, 0, 0, 0, 0, 0, 0, 0, 0, 0, 0, 0, 0, 0, 0, 0, 0, 0, 0, 0, 0, 0, 0, 0, 0, 0, 0, 0, 0, 0, 0, 0
0, 0, 44, 1, 0, 1, 4, 4, 14, 20, 37, 32, 51, 67, 75, 80, 83, 86, 86, 110, 107, 110, 122, 110, 97, 124, 111, 86, 91, 94, 116, 104, 81, 104, 73, 83, 67, 80, 55, 59, 42, 43, 25, 35, 13, 11, 1, 0, 0, 0, 0, 0, 0, 0, 0, 0, 0, 0, 0, 0, 0, 0, 0, 0, 0, 0, 0, 0, 0, 0, 0, 0, 0, 0, 0, 0, 0, 0, 0, 0, 0, 0, 0, 0, 0, 0, 0, 0, 0, 0, 0, 0, 0, 0, 0, 0, 0, 0, 0, 0, 0, 0, 0, 0, 0, 0
0, 0, 45, 2, 0, 0, 4, 11, 5, 11, 31, 25, 29, 46, 42, 56, 60, 66, 56, 59, 68, 94, 65, 95, 74, 87, 99, 76, 72, 71, 61, 82, 93, 59, 68, 49, 56, 42, 44, 43, 28, 38, 25, 20, 18, 16, 1, 0, 0, 0, 0, 0, 0, 0, 0, 0, 0, 0, 0, 0, 0, 0, 0, 0, 0, 0, 0, 0, 0, 0, 0, 0, 0, 0, 0, 0, 0, 0, 0, 0, 0, 0, 0, 0, 0, 0, 0, 0, 0, 0, 0, 0, 0, 0, 0, 0, 0, 0, 0, 0, 0, 0, 0, 0, 0, 0
0, 0, 46, 0, 0, 1, 7, 4, 5, 14, 22, 13, 18, 21, 29, 49, 39, 27, 60, 48, 75, 54, 60, 77, 76, 71, 65, 52, 51, 63, 50, 60, 61, 52, 51, 33, 48, 41, 37, 33, 37, 32, 27, 19, 15, 14, 0, 0, 0, 0, 0, 0, 0, 0, 0, 0, 0, 0, 0, 0, 0, 0, 0, 0, 0, 0, 0, 0, 0, 0, 0, 0, 0, 0, 0, 0, 0, 0, 0, 0, 0, 0, 0, 0, 0, 0, 0, 0, 0, 0, 0, 0, 0, 0, 0, 0, 0, 0, 0, 0, 0, 0, 0, 0, 0, 0
0, 0, 47, 0, 1, 2, 3, 3, 4, 6, 10, 10, 15, 13, 18, 14, 30, 28, 36, 22, 39, 39, 45, 45, 55, 46, 47, 44, 53, 32, 39, 37, 50, 40, 35, 33, 21, 34, 29, 28, 16, 18, 21, 13, 6, 5, 0, 0, 0, 0, 0, 0, 0, 0, 0, 0, 0, 0, 0, 0, 0, 0, 0, 0, 0, 0, 0, 0, 0, 0, 0, 0, 0, 0, 0, 0, 0, 0, 0, 0, 0, 0, 0, 0, 0, 0, 0, 0, 0, 0, 0, 0, 0, 0, 0, 0, 0, 0, 0, 0, 0, 0, 0, 0, 0, 0
0, 0, 48, 0, 0, 0, 0, 0, 1, 5, 6, 8, 4, 3, 6, 10, 9, 16, 25, 36, 25, 35, 31, 27, 29, 39, 45, 40, 35, 35, 34, 37, 35, 25, 28, 31, 24, 27, 35, 22, 21, 10, 21, 19, 10, 8, 0, 0, 0, 0, 0, 0, 0, 0, 0, 0, 0, 0, 0, 0, 0, 0, 0, 0, 0, 0, 0, 0, 0, 0, 0, 0, 0, 0, 0, 0, 0, 0, 0, 0, 0, 0, 0, 0, 0, 0, 0, 0, 0, 0, 0, 0, 0, 0, 0, 0, 0, 0, 0, 0, 0, 0, 0, 0, 0, 0
0, 0, 49, 1, 2, 0, 0, 0, 0, 0, 8, 3, 2, 3, 9, 8, 14, 16, 15, 14, 22, 26, 37, 25, 30, 32, 19, 25, 33, 32, 38, 26, 29, 13, 29, 25, 35, 25, 23, 22, 18, 14, 8, 9, 15, 2, 0, 0, 0, 0, 0, 0, 0, 0, 0, 0, 0, 0, 0, 0, 0, 0, 0, 0, 0, 0, 0, 0, 0, 0, 0, 0, 0, 0, 0, 0, 0, 0, 0, 0, 0, 0, 0, 0, 0, 0, 0, 0, 0, 0, 0, 0, 0, 0, 0, 0, 0, 0, 0, 0, 0, 0, 0, 0, 0, 0
0, 0, 50, 2, 0, 0, 0, 0, 0, 0, 10, 0, 3, 6, 5, 12, 12, 17, 15, 21, 22, 13, 23, 22, 30, 33, 27, 32, 25, 26, 37, 31, 38, 33, 23, 25, 22, 27, 16, 25, 8, 19, 11, 12, 8, 10, 1, 0, 0, 0, 0, 0, 0, 0, 0, 0, 0, 0, 0, 0, 0, 0, 0, 0, 0, 0, 0, 0, 0, 0, 0, 0, 0, 0, 0, 0, 0, 0, 0, 0, 0, 0, 0, 0, 0, 0, 0, 0, 0, 0, 0, 0, 0, 0, 0, 0, 0, 0, 0, 0, 0, 0, 0, 0, 0, 0
0, 0, 51, 0, 0, 0, 0, 4, 1, 1, 12, 6, 5, 13, 17, 13, 9, 12, 22, 24, 26, 18, 26, 39, 36, 44, 34, 43, 35, 30, 36, 26, 40, 38, 33, 27, 28, 19, 22, 22, 15, 16, 15, 13, 11, 4, 0, 0, 0, 0, 0, 0, 0, 0, 0, 0, 0, 0, 0, 0, 0, 0, 0, 0, 0, 0, 0, 0, 0, 0, 0, 0, 0, 0, 0, 0, 0, 0, 0, 0, 0, 0, 0, 0, 0, 0, 0, 0, 0, 0, 0, 0, 0, 0, 0, 0, 0, 0, 0, 0, 0, 0, 0, 0, 0, 0
0, 0, 52, 0, 0, 0, 0, 3, 0, 10, 12, 7, 11, 21, 17, 15, 29, 22, 24, 33, 38, 41, 61, 43, 46, 45, 34, 51, 50, 42, 47, 44, 34, 44, 39, 40, 23, 34, 29, 28, 24, 19, 23, 10, 12, 7, 0, 0, 0, 0, 0, 0, 0, 0, 0, 0, 0, 0, 0, 0, 0, 0, 0, 0, 0, 0, 0, 0, 0, 0, 0, 0, 0, 0, 0, 0, 0, 0, 0, 0, 0, 0, 0, 0, 0, 0, 0, 0, 0, 0, 0, 0, 0, 0, 0, 0, 0, 0, 0, 0, 0, 0, 0, 0, 0, 0
0, 0, 53, 0, 1, 2, 4, 4, 9, 7, 18, 19, 20, 30, 27, 36, 50, 44, 57, 44, 52, 76, 61, 48, 51, 57, 64, 69, 56, 38, 48, 57, 49, 49, 60, 48, 54, 39, 33, 27, 27, 25, 25, 15, 12, 4, 0, 0, 0, 0, 0, 0, 0, 0, 0, 0, 0, 0, 0, 0, 0, 0, 0, 0, 0, 0, 0, 0, 0, 0, 0, 0, 0, 0, 0, 0, 0, 0, 0, 0, 0, 0, 0, 0, 0, 0, 0, 0, 0, 0, 0, 0, 0, 0, 0, 0, 0, 0, 0, 0, 0, 0, 0, 0, 0, 0
0, 0, 54, 2, 1, 2, 9, 7, 10, 18, 24, 24, 23, 24, 49, 55, 58, 57, 70, 79, 97, 72, 69, 70, 85, 95, 92, 88, 80, 66, 80, 59, 59, 53, 67, 67, 45, 53, 36, 40, 29, 26, 20, 27, 23, 8, 0, 0, 0, 0, 0, 0, 0, 0, 0, 0, 0, 0, 0, 0, 0, 0, 0, 0, 0, 0, 0, 0, 0, 0, 0, 0, 0, 0, 0, 0, 0, 0, 0, 0, 0, 0, 0, 0, 0, 0, 0, 0, 0, 0, 0, 0, 0, 0, 0, 0, 0, 0, 0, 0, 0, 0, 0, 0, 0, 0
0, 0, 55, 1, 2, 3, 5, 10, 19, 19, 40, 48, 43, 58, 82, 96, 85, 105, 82, 117, 100, 109, 122, 128, 114, 113, 111, 123, 118, 105, 89, 116, 93, 81, 78, 71, 69, 62, 73, 52, 47, 44, 30, 26, 22, 14, 0, 0, 0, 0, 0, 0, 0, 0, 0, 0, 0, 0, 0, 0, 0, 0, 0, 0, 0, 0, 0, 0, 0, 0, 0, 0, 0, 0, 0, 0, 0, 0, 0, 0, 0, 0, 0, 0, 0, 0, 0, 0, 0, 0, 0, 0, 0, 0, 0, 0, 0, 0, 0, 0, 0, 0, 0, 0, 0, 0
0, 0, 56, 0, 1, 7, 11, 17, 19, 34, 63, 36, 60, 83, 118, 95, 121, 117, 117, 138, 145, 133, 149, 147, 143, 155, 134, 124, 122, 132, 133, 129, 115, 91, 104, 92, 76, 79, 81, 69, 53, 58, 40, 35, 27, 11, 1, 0, 0, 0, 0, 0, 0, 0, 0, 0, 0, 0, 0, 0, 0, 0, 0, 0, 0, 0, 0, 0, 0, 0, 0, 0, 0, 0, 0, 0, 0, 0, 0, 0, 0, 0, 0, 0, 0, 0, 0, 0, 0, 0, 0, 0, 0, 0, 0, 0, 0, 0, 0, 0, 0, 0, 0, 0, 0, 0
0, 0, 57, 0, 4, 3, 9, 10, 20, 33, 64, 70, 77, 113, 106, 139, 137, 150, 193, 173, 156, 191, 184, 192, 202, 155, 159, 171, 172, 119, 148, 129, 148, 98, 114, 113, 119, 100, 91, 75, 80, 64, 42, 44, 40, 25, 2, 0, 0, 0, 0, 0, 0, 0, 0, 0, 0, 0, 0, 0, 0, 0, 0, 0, 0, 0, 0, 0, 0, 0, 0, 0, 0, 0, 0, 0, 0, 0, 0, 0, 0, 0, 0, 0, 0, 0, 0, 0, 0, 0, 0, 0, 0, 0, 0, 0, 0, 0, 0, 0, 0, 0, 0, 0, 0, 0
0, 0, 58, 0, 1, 6, 16, 29, 32, 54, 101, 80, 115, 119, 148, 174, 208, 202, 200, 219, 246, 240, 255, 191, 212, 238, 244, 242, 179, 204, 181, 191, 172, 153, 161, 115, 149, 124, 99, 109, 95, 80, 58, 51, 47, 33, 0, 0, 0, 0, 0, 0, 0, 0, 0, 0, 0, 0, 0, 0, 0, 0, 0, 0, 0, 0, 0, 0, 0, 0, 0, 0, 0, 0, 0, 0, 0, 0, 0, 0, 0, 0, 0, 0, 0, 0, 0, 0, 0, 0, 0, 0, 0, 0, 0, 0, 0, 0, 0, 0, 0, 0, 0, 0, 0, 0
0, 0, 59, 0, 4, 12, 17, 21, 48, 51, 110, 97, 107, 155, 177, 176, 206, 189, 245, 248, 263, 248, 239, 267, 271, 225, 226, 229, 228, 218, 204, 180, 170, 197, 155, 148, 138, 143, 114, 112, 76, 77, 63, 68, 42, 16, 0, 0, 0, 0, 0, 0, 0, 0, 0, 0, 0, 0, 0, 0, 0, 0, 0, 0, 0, 0, 0, 0, 0, 0, 0, 0, 0, 0, 0, 0, 0, 0, 0, 0, 0, 0, 0, 0, 0, 0, 0, 0, 0, 0, 0, 0, 0, 0, 0, 0, 0, 0, 0, 0, 0, 0, 0, 0, 0, 0
0, 0, 60, 2, 1, 7, 18, 22, 37, 52, 124, 94, 130, 132, 173, 198, 188, 242, 239, 236, 240, 267, 266, 224, 253, 221, 247, 239, 225, 216, 221, 219, 211, 161, 156, 175, 146, 138, 109, 116, 93, 73, 80, 65, 47, 24, 1, 0, 0, 0, 0, 0, 0, 0, 0, 0, 0, 0, 0, 0, 0, 0, 0, 0, 0, 0, 0, 0, 0, 0, 0, 0, 0, 0, 0, 0, 0, 0, 0, 0, 0, 0, 0, 0, 0, 0, 0, 0, 0, 0, 0, 0, 0, 0, 0, 0, 0, 0, 0, 0, 0, 0, 0, 0, 0, 0
0, 0, 61, 1, 1, 5, 15, 28, 39, 67, 117, 96, 107, 157, 142, 194, 203, 203, 209, 226, 253, 266, 253, 267, 248, 274, 244, 248, 207, 222, 214, 190, 174, 166, 136, 151, 130, 135, 121, 109, 94, 76, 78, 61, 35, 17, 3, 0, 0, 0, 0, 0, 0, 0, 0, 0, 0, 0, 0, 0, 0, 0, 0, 0, 0, 0, 0, 0, 0, 0, 0, 0, 0, 0, 0, 0, 0, 0, 0, 0, 0, 0, 0, 0, 0, 0, 0, 0, 0, 0, 0, 0, 0, 0, 0, 0, 0, 0, 0, 0, 0, 0, 0, 0, 0, 0
0, 0, 62, 4, 2, 6, 16, 16, 47, 46, 116, 85, 111, 167, 162, 185, 164, 218, 213, 243, 220, 240, 268, 218, 237, 244, 229, 223, 204, 197, 198, 207, 168, 167, 171, 165, 151, 121, 110, 121, 84, 67, 56, 44, 37, 21, 0, 0, 0, 0, 0, 0, 0, 0, 0, 0, 0, 0, 0, 0, 0, 0, 0, 0, 0, 0, 0, 0, 0, 0, 0, 0, 0, 0, 0, 0, 0, 0, 0, 0, 0, 0, 0, 0, 0, 0, 0, 0, 0, 0, 0, 0, 0, 0, 0, 0, 0, 0, 0, 0, 0, 0, 0, 0, 0, 0
0, 0, 63, 1, 4, 7, 6, 23, 42, 64, 128, 100, 114, 140, 171, 194, 206, 205, 224, 231, 227, 271, 256, 253, 239, 204, 239, 225, 233, 230, 215, 180, 159, 160, 158, 148, 141, 106, 99, 94, 82, 76, 51, 49, 42, 11, 1, 0, 0, 0, 0, 0, 0, 0, 0, 0, 0, 0, 0, 0, 0, 0, 0, 0, 0, 0, 0, 0, 0, 0, 0, 0, 0, 0, 0, 0, 0, 0, 0, 0, 0, 0, 0, 0, 0, 0, 0, 0, 0, 0, 0, 0, 0, 0, 0, 0, 0, 0, 0, 0, 0, 0, 0, 0, 0, 0
0, 0, 64, 2, 5, 10, 15, 25, 52, 51, 108, 90, 115, 140, 158, 222, 200, 191, 254, 220, 249, 255, 224, 253, 264, 246, 228, 203, 227, 186, 224, 198, 204, 173, 160, 148, 130, 93, 132, 112, 94, 66, 59, 61, 41, 19, 2, 0, 0, 0, 0, 0, 0, 0, 0, 0, 0, 0, 0, 0, 0, 0, 0, 0, 0, 0, 0, 0, 0, 0, 0, 0, 0, 0, 0, 0, 0, 0, 0, 0, 0, 0, 0, 0, 0, 0, 0, 0, 0, 0, 0, 0, 0, 0, 0, 0, 0, 0, 0, 0, 0, 0, 0, 0, 0, 0
0, 0, 65, 2, 5, 3, 16, 28, 42, 77, 103, 100, 123, 131, 156, 187, 198, 187, 204, 254, 243, 231, 236, 251, 250, 266, 232, 215, 212, 200, 178, 200, 197, 177, 163, 147, 145, 115, 105, 116, 70, 64, 65, 46, 53, 16, 2, 0, 0, 0, 0, 0, 0, 0, 0, 0, 0, 0, 0, 0, 0, 0, 0, 0, 0, 0, 0, 0, 0, 0, 0, 0, 0, 0, 0, 0, 0, 0, 0, 0, 0, 0, 0, 0, 0, 0, 0, 0, 0, 0, 0, 0, 0, 0, 0, 0, 0, 0, 0, 0, 0, 0, 0, 0, 0, 0
0, 0, 66, 4, 4, 9, 15, 29, 24, 61, 117, 82, 125, 148, 195, 212, 187, 222, 258, 260, 219, 262, 284, 240, 239, 226, 227, 253, 216, 221, 175, 179, 176, 165, 186, 156, 144, 132, 130, 104, 81, 79, 68, 42, 33, 40, 0, 0, 0, 0, 0, 0, 0, 0, 0, 0, 0, 0, 0, 0, 0, 0, 0, 0, 0, 0, 0, 0, 0, 0, 0, 0, 0, 0, 0, 0, 0, 0, 0, 0, 0, 0, 0, 0, 0, 0, 0, 0, 0, 0, 0, 0, 0, 0, 0, 0, 0, 0, 0, 0, 0, 0, 0, 0, 0, 0
0, 0, 67, 1, 9, 6, 14, 18, 44, 50, 122, 103, 119, 139, 174, 181, 211, 194, 229, 254, 277, 247, 248, 256, 242, 248, 245, 230, 240, 197, 183, 204, 161, 160, 175, 174, 149, 140, 131, 98, 84, 73, 77, 52, 39, 20, 2, 0, 0, 0, 0, 0, 0, 0, 0, 0, 0, 0, 0, 0, 0, 0, 0, 0, 0, 0, 0, 0, 0, 0, 0, 0, 0, 0, 0, 0, 0, 0, 0, 0, 0, 0, 0, 0, 0, 0, 0, 0, 0, 0, 0, 0, 0, 0, 0, 0, 0, 0, 0, 0, 0, 0, 0, 0, 0, 0
0, 0, 68, 6, 5, 6, 15, 28, 39, 52, 130, 96, 150, 133, 188, 207, 198, 194, 229, 251, 247, 246, 239, 244, 265, 230, 243, 237, 223, 205, 198, 186, 191, 178, 138, 137, 124, 111, 105, 87, 89, 86, 67, 36, 55, 21, 1, 0, 0, 0, 0, 0, 0, 0, 0, 0, 0, 0, 0, 0, 0, 0, 0, 0, 0, 0, 0, 0, 0, 0, 0, 0, 0, 0, 0, 0, 0, 0, 0, 0, 0, 0, 0, 0, 0, 0, 0, 0, 0, 0, 0, 0, 0, 0, 0, 0, 0, 0, 0, 0, 0, 0, 0, 0, 0, 0
0, 0, 69, 5, 5, 8, 18, 26, 35, 51, 108, 81, 94, 151, 173, 213, 188, 174, 219, 268, 233, 247, 268, 259, 255, 232, 250, 219, 221, 212, 208, 190, 170, 131, 162, 148, 143, 124, 128, 126, 103, 89, 77, 58, 26, 20, 1, 0, 0, 0, 0, 0, 0, 0, 0, 0, 0, 0, 0, 0, 0, 0, 0, 0, 0, 0, 0, 0, 0, 0, 0, 0, 0, 0, 0, 0, 0, 0, 0, 0, 0, 0, 0, 0, 0, 0, 0, 0, 0, 0, 0, 0, 0, 0, 0, 0, 0, 0, 0, 0, 0, 0, 0, 0, 0, 0
0, 0, 70, 0, 3, 7, 14, 20, 48, 58, 113, 108, 116, 122, 185, 220, 222, 228, 213, 251, 230, 222, 247, 224, 272, 245, 209, 232, 205, 180, 208, 200, 199, 171, 157, 145, 137, 125, 110, 110, 87, 82, 68, 68, 35, 25, 1, 0, 0, 0, 0, 0, 0, 0, 0, 0, 0, 0, 0, 0, 0, 0, 0, 0, 0, 0, 0, 0, 0, 0, 0, 0, 0, 0, 0, 0, 0, 0, 0, 0, 0, 0, 0, 0, 0, 0, 0, 0, 0, 0, 0, 0, 0, 0, 0, 0, 0, 0, 0, 0, 0, 0, 0, 0, 0, 0
0, 0, 71, 2, 4, 7, 15, 21, 45, 48, 106, 99, 126, 148, 174, 164, 220, 218, 212, 233, 288, 270, 264, 236, 262, 251, 220, 218, 229, 177, 206, 189, 182, 159, 164, 179, 101, 120, 125, 80, 95, 79, 65, 51, 27, 24, 0, 0, 0, 0, 0, 0, 0, 0, 0, 0, 0, 0, 0, 0, 0, 0, 0, 0, 0, 0, 0, 0, 0, 0, 0, 0, 0, 0, 0, 0, 0, 0, 0, 0, 0, 0, 0, 0, 0, 0, 0, 0, 0, 0, 0, 0, 0, 0, 0, 0, 0, 0, 0, 0, 0, 0, 0, 0, 0, 0
0, 0, 72, 0, 2, 10, 15, 23, 40, 62, 132, 94, 133, 160, 178, 208, 194, 225, 234, 239, 246, 265, 257, 250, 240, 245, 269, 266, 226, 194, 194, 177, 188, 172, 172, 140, 139, 160, 114, 121, 84, 73, 75, 64, 45, 20, 0, 0, 0, 0, 0, 0, 0, 0, 0, 0, 0, 0, 0, 0, 0, 0, 0, 0, 0, 0, 0, 0, 0, 0, 0, 0, 0, 0, 0, 0, 0, 0, 0, 0, 0, 0, 0, 0, 0, 0, 0, 0, 0, 0, 0, 0, 0, 0, 0, 0, 0, 0, 0, 0, 0, 0, 0, 0, 0, 0
0, 0, 73, 5, 5, 6, 18, 22, 36, 59, 112, 104, 103, 142, 183, 197, 199, 232, 233, 238, 251, 251, 282, 276, 249, 260, 211, 222, 228, 212, 201, 192, 158, 137, 153, 137, 166, 110, 118, 117, 83, 91, 76, 56, 50, 20, 2, 0, 0, 0, 0, 0, 0, 0, 0, 0, 0, 0, 0, 0, 0, 0, 0, 0, 0, 0, 0, 0, 0, 0, 0, 0, 0, 0, 0, 0, 0, 0, 0, 0, 0, 0, 0, 0, 0, 0, 0, 0, 0, 0, 0, 0, 0, 0, 0, 0, 0, 0, 0, 0, 0, 0, 0, 0, 0, 0
0, 0, 74, 1, 3, 5, 13, 19, 33, 67, 128, 103, 114, 135, 158, 176, 190, 209, 232, 247, 240, 247, 255, 259, 244, 214, 225, 229, 228, 228, 209, 194, 186, 153, 161, 148, 113, 137, 132, 86, 92, 81, 77, 44, 44, 25, 2, 0, 0, 0, 0, 0, 0, 0, 0, 0, 0, 0, 0, 0, 0, 0, 0, 0, 0, 0, 0, 0, 0, 0, 0, 0, 0, 0, 0, 0, 0, 0, 0, 0, 0, 0, 0, 0, 0, 0, 0, 0, 0, 0, 0, 0, 0, 0, 0, 0, 0, 0, 0, 0, 0, 0, 0, 0, 0, 0
0, 0, 75, 4, 5, 5, 13, 22, 32, 61, 124, 87, 118, 154, 158, 196, 205, 227, 230, 223, 235, 262, 234, 235, 234, 246, 221, 220, 230, 215, 203, 188, 195, 157, 173, 147, 128, 133, 115, 111, 78, 61, 61, 61, 47, 28, 3, 0, 0, 0, 0, 0, 0, 0, 0, 0, 0, 0, 0, 0, 0, 0, 0, 0, 0, 0, 0, 0, 0, 0, 0, 0, 0, 0, 0, 0, 0, 0, 0, 0, 0, 0, 0, 0, 0, 0, 0, 0, 0, 0, 0, 0, 0, 0, 0, 0, 0, 0, 0, 0, 0, 0, 0, 0, 0, 0
0, 0, 76, 3, 4, 13, 19, 23, 41, 44, 119, 89, 133, 149, 179, 198, 196, 221, 249, 224, 267, 258, 261, 247, 234, 245, 248, 262, 243, 218, 193, 172, 175, 188, 172, 160, 152, 109, 106, 107, 80, 72, 66, 53, 44, 28, 0, 0, 0, 0, 0, 0, 0, 0, 0, 0, 0, 0, 0, 0, 0, 0, 0, 0, 0, 0, 0, 0, 0, 0, 0, 0, 0, 0, 0, 0, 0, 0, 0, 0, 0, 0, 0, 0, 0, 0, 0, 0, 0, 0, 0, 0, 0, 0, 0, 0, 0, 0, 0, 0, 0, 0, 0, 0, 0, 0
0, 0, 77, 1, 2, 6, 15, 24, 41, 53, 140, 84, 133, 161, 182, 198, 193, 199, 193, 247, 247, 268, 233, 238, 229, 196, 251, 260, 207, 208, 179, 165, 154, 176, 156, 156, 126, 125, 110, 108, 97, 70, 67, 43, 29, 22, 2, 0, 0, 0, 0, 0, 0, 0, 0, 0, 0, 0, 0, 0, 0, 0, 0, 0, 0, 0, 0, 0, 0, 0, 0, 0, 0, 0, 0, 0, 0, 0, 0, 0, 0, 0, 0, 0, 0, 0, 0, 0, 0, 0, 0, 0, 0, 0, 0, 0, 0, 0, 0, 0, 0, 0, 0, 0, 0, 0
