# TOPAS Version: 3.1.p3
# Parameter File: REDLEN_small_phantom_mc_basic_2cm.txt
# Results for scorer PhantomDose
# Scored on surface: CdTeCrystal1/YPlusSurface
# X in 100 bins of 0.03332 cm
# Y in 1 bin  of 0.4 cm
# Z in 100 bins of 0.0375 cm
# SurfaceTrackCount : Sum   
# Binned by incident track energy in 100 bins of 0.00104 MeV from 0.016 MeV to 0.12 MeV
# First bin is underflow, next to last bin is overflow, last bin is for case of no incident track.
0, 0, 0, 0, 0, 0, 0, 0, 0, 0, 0, 0, 0, 2, 3, 3, 1, 2, 2, 4, 1, 4, 6, 5, 3, 4, 4, 1, 1, 1, 1, 2, 3, 4, 0, 0, 1, 0, 0, 1, 1, 0, 1, 0, 0, 0, 0, 0, 0, 0, 0, 0, 0, 0, 0, 0, 0, 0, 0, 0, 0, 0, 0, 0, 0, 0, 0, 0, 0, 0, 0, 0, 0, 0, 0, 0, 0, 0, 0, 0, 0, 0, 0, 0, 0, 0, 0, 0, 0, 0, 0, 0, 0, 0, 0, 0, 0, 0, 0, 0, 0, 0, 0, 0, 0, 0
0, 0, 1, 1, 0, 0, 0, 0, 0, 1, 0, 1, 1, 2, 3, 3, 2, 7, 2, 2, 3, 1, 6, 7, 6, 2, 1, 4, 1, 1, 1, 1, 3, 0, 2, 1, 1, 0, 0, 1, 2, 0, 1, 0, 0, 0, 0, 0, 0, 0, 0, 0, 0, 0, 0, 0, 0, 0, 0, 0, 0, 0, 0, 0, 0, 0, 0, 0, 0, 0, 0, 0, 0, 0, 0, 0, 0, 0, 0, 0, 0, 0, 0, 0, 0, 0, 0, 0, 0, 0, 0, 0, 0, 0, 0, 0, 0, 0, 0, 0, 0, 0, 0, 0, 0, 0
0, 0, 2, 0, 0, 0, 0, 0, 0, 0, 0, 1, 1, 2, 0, 1, 0, 1, 2, 3, 3, 6, 4, 2, 4, 3, 2, 3, 2, 2, 4, 4, 0, 1, 0, 0, 2, 0, 2, 1, 1, 1, 0, 0, 1, 0, 0, 0, 0, 0, 0, 0, 0, 0, 0, 0, 0, 0, 0, 0, 0, 0, 0, 0, 0, 0, 0, 0, 0, 0, 0, 0, 0, 0, 0, 0, 0, 0, 0, 0, 0, 0, 0, 0, 0, 0, 0, 0, 0, 0, 0, 0, 0, 0, 0, 0, 0, 0, 0, 0, 0, 0, 0, 0, 0, 0
0, 0, 3, 0, 0, 0, 0, 0, 0, 0, 0, 1, 1, 1, 1, 6, 1, 3, 2, 0, 4, 3, 6, 4, 5, 1, 6, 3, 1, 2, 0, 2, 4, 1, 2, 0, 0, 2, 2, 1, 0, 0, 1, 0, 0, 0, 0, 0, 0, 0, 0, 0, 0, 0, 0, 0, 0, 0, 0, 0, 0, 0, 0, 0, 0, 0, 0, 0, 0, 0, 0, 0, 0, 0, 0, 0, 0, 0, 0, 0, 0, 0, 0, 0, 0, 0, 0, 0, 0, 0, 0, 0, 0, 0, 0, 0, 0, 0, 0, 0, 0, 0, 0, 0, 0, 0
0, 0, 4, 0, 0, 0, 0, 0, 0, 0, 2, 1, 0, 1, 1, 2, 4, 3, 1, 5, 0, 5, 4, 1, 5, 1, 2, 6, 4, 1, 3, 2, 2, 2, 0, 2, 3, 2, 0, 2, 1, 0, 0, 2, 1, 0, 0, 0, 0, 0, 0, 0, 0, 0, 0, 0, 0, 0, 0, 0, 0, 0, 0, 0, 0, 0, 0, 0, 0, 0, 0, 0, 0, 0, 0, 0, 0, 0, 0, 0, 0, 0, 0, 0, 0, 0, 0, 0, 0, 0, 0, 0, 0, 0, 0, 0, 0, 0, 0, 0, 0, 0, 0, 0, 0, 0
0, 0, 5, 0, 2, 5, 3, 19, 12, 26, 49, 37, 57, 74, 77, 83, 101, 84, 95, 103, 113, 105, 106, 123, 103, 108, 91, 93, 123, 84, 94, 76, 85, 75, 66, 62, 47, 65, 47, 45, 26, 36, 41, 19, 16, 13, 2, 0, 0, 0, 0, 0, 0, 0, 0, 0, 0, 0, 0, 0, 0, 0, 0, 0, 0, 0, 0, 0, 0, 0, 0, 0, 0, 0, 0, 0, 0, 0, 0, 0, 0, 0, 0, 0, 0, 0, 0, 0, 0, 0, 0, 0, 0, 0, 0, 0, 0, 0, 0, 0, 0, 0, 0, 0, 0, 0
0, 0, 6, 7, 3, 6, 14, 22, 32, 47, 119, 95, 124, 146, 173, 182, 200, 199, 222, 259, 239, 227, 245, 220, 251, 234, 243, 220, 247, 191, 191, 217, 167, 154, 177, 158, 151, 152, 104, 87, 80, 77, 61, 51, 44, 22, 3, 0, 0, 0, 0, 0, 0, 0, 0, 0, 0, 0, 0, 0, 0, 0, 0, 0, 0, 0, 0, 0, 0, 0, 0, 0, 0, 0, 0, 0, 0, 0, 0, 0, 0, 0, 0, 0, 0, 0, 0, 0, 0, 0, 0, 0, 0, 0, 0, 0, 0, 0, 0, 0, 0, 0, 0, 0, 0, 0
0, 0, 7, 0, 2, 9, 10, 21, 46, 59, 121, 101, 106, 141, 192, 175, 197, 215, 195, 242, 297, 233, 253, 244, 246, 267, 224, 213, 181, 227, 198, 200, 170, 186, 151, 141, 147, 136, 116, 98, 79, 73, 78, 48, 44, 25, 0, 0, 0, 0, 0, 0, 0, 0, 0, 0, 0, 0, 0, 0, 0, 0, 0, 0, 0, 0, 0, 0, 0, 0, 0, 0, 0, 0, 0, 0, 0, 0, 0, 0, 0, 0, 0, 0, 0, 0, 0, 0, 0, 0, 0, 0, 0, 0, 0, 0, 0, 0, 0, 0, 0, 0, 0, 0, 0, 0
0, 0, 8, 2, 3, 9, 12, 23, 41, 65, 118, 90, 130, 111, 167, 210, 235, 205, 234, 248, 238, 239, 223, 263, 259, 234, 223, 201, 220, 196, 178, 166, 202, 179, 138, 140, 131, 122, 115, 103, 95, 94, 63, 40, 52, 13, 2, 0, 0, 0, 0, 0, 0, 0, 0, 0, 0, 0, 0, 0, 0, 0, 0, 0, 0, 0, 0, 0, 0, 0, 0, 0, 0, 0, 0, 0, 0, 0, 0, 0, 0, 0, 0, 0, 0, 0, 0, 0, 0, 0, 0, 0, 0, 0, 0, 0, 0, 0, 0, 0, 0, 0, 0, 0, 0, 0
0, 0, 9, 5, 5, 7, 16, 19, 43, 55, 109, 93, 100, 154, 173, 245, 193, 203, 205, 262, 245, 228, 271, 263, 237, 223, 213, 235, 217, 199, 200, 191, 202, 162, 163, 136, 121, 111, 113, 106, 85, 82, 62, 50, 45, 23, 4, 0, 0, 0, 0, 0, 0, 0, 0, 0, 0, 0, 0, 0, 0, 0, 0, 0, 0, 0, 0, 0, 0, 0, 0, 0, 0, 0, 0, 0, 0, 0, 0, 0, 0, 0, 0, 0, 0, 0, 0, 0, 0, 0, 0, 0, 0, 0, 0, 0, 0, 0, 0, 0, 0, 0, 0, 0, 0, 0
0, 0, 10, 0, 4, 16, 12, 22, 30, 53, 101, 101, 116, 147, 158, 188, 207, 207, 226, 233, 289, 311, 223, 268, 250, 241, 244, 215, 205, 232, 195, 182, 181, 151, 141, 156, 154, 124, 102, 96, 87, 87, 75, 65, 39, 21, 1, 0, 0, 0, 0, 0, 0, 0, 0, 0, 0, 0, 0, 0, 0, 0, 0, 0, 0, 0, 0, 0, 0, 0, 0, 0, 0, 0, 0, 0, 0, 0, 0, 0, 0, 0, 0, 0, 0, 0, 0, 0, 0, 0, 0, 0, 0, 0, 0, 0, 0, 0, 0, 0, 0, 0, 0, 0, 0, 0
0, 0, 11, 4, 5, 11, 16, 24, 47, 59, 118, 78, 100, 131, 171, 218, 226, 218, 216, 239, 248, 246, 257, 259, 219, 227, 208, 236, 237, 219, 218, 206, 195, 201, 158, 145, 132, 126, 115, 104, 103, 85, 77, 63, 49, 10, 0, 0, 0, 0, 0, 0, 0, 0, 0, 0, 0, 0, 0, 0, 0, 0, 0, 0, 0, 0, 0, 0, 0, 0, 0, 0, 0, 0, 0, 0, 0, 0, 0, 0, 0, 0, 0, 0, 0, 0, 0, 0, 0, 0, 0, 0, 0, 0, 0, 0, 0, 0, 0, 0, 0, 0, 0, 0, 0, 0
0, 0, 12, 1, 4, 8, 15, 23, 42, 56, 129, 95, 109, 142, 158, 180, 186, 214, 221, 230, 260, 276, 246, 245, 211, 258, 254, 245, 217, 215, 194, 170, 168, 148, 135, 144, 135, 132, 122, 108, 89, 78, 70, 48, 27, 19, 1, 0, 0, 0, 0, 0, 0, 0, 0, 0, 0, 0, 0, 0, 0, 0, 0, 0, 0, 0, 0, 0, 0, 0, 0, 0, 0, 0, 0, 0, 0, 0, 0, 0, 0, 0, 0, 0, 0, 0, 0, 0, 0, 0, 0, 0, 0, 0, 0, 0, 0, 0, 0, 0, 0, 0, 0, 0, 0, 0
0, 0, 13, 6, 3, 5, 15, 16, 43, 56, 112, 99, 121, 131, 147, 202, 195, 222, 215, 243, 248, 273, 249, 251, 242, 242, 226, 245, 183, 197, 191, 196, 178, 155, 146, 138, 136, 120, 123, 103, 103, 89, 56, 57, 46, 21, 1, 0, 0, 0, 0, 0, 0, 0, 0, 0, 0, 0, 0, 0, 0, 0, 0, 0, 0, 0, 0, 0, 0, 0, 0, 0, 0, 0, 0, 0, 0, 0, 0, 0, 0, 0, 0, 0, 0, 0, 0, 0, 0, 0, 0, 0, 0, 0, 0, 0, 0, 0, 0, 0, 0, 0, 0, 0, 0, 0
0, 0, 14, 4, 1, 8, 17, 34, 43, 65, 120, 90, 131, 157, 192, 184, 205, 204, 239, 273, 235, 252, 212, 256, 258, 226, 214, 204, 194, 191, 200, 173, 168, 149, 169, 162, 157, 98, 138, 103, 75, 75, 72, 61, 42, 12, 3, 0, 0, 0, 0, 0, 0, 0, 0, 0, 0, 0, 0, 0, 0, 0, 0, 0, 0, 0, 0, 0, 0, 0, 0, 0, 0, 0, 0, 0, 0, 0, 0, 0, 0, 0, 0, 0, 0, 0, 0, 0, 0, 0, 0, 0, 0, 0, 0, 0, 0, 0, 0, 0, 0, 0, 0, 0, 0, 0
0, 0, 15, 4, 4, 7, 13, 23, 46, 48, 114, 88, 126, 140, 201, 231, 207, 208, 245, 250, 262, 271, 240, 245, 238, 263, 183, 214, 212, 218, 182, 196, 174, 146, 149, 144, 145, 131, 93, 99, 95, 83, 68, 42, 43, 20, 2, 0, 0, 0, 0, 0, 0, 0, 0, 0, 0, 0, 0, 0, 0, 0, 0, 0, 0, 0, 0, 0, 0, 0, 0, 0, 0, 0, 0, 0, 0, 0, 0, 0, 0, 0, 0, 0, 0, 0, 0, 0, 0, 0, 0, 0, 0, 0, 0, 0, 0, 0, 0, 0, 0, 0, 0, 0, 0, 0
0, 0, 16, 2, 6, 6, 17, 30, 34, 50, 117, 102, 115, 151, 205, 209, 177, 186, 216, 245, 224, 234, 244, 232, 241, 251, 220, 252, 216, 204, 203, 188, 164, 158, 152, 158, 144, 117, 109, 114, 102, 88, 60, 56, 36, 25, 0, 0, 0, 0, 0, 0, 0, 0, 0, 0, 0, 0, 0, 0, 0, 0, 0, 0, 0, 0, 0, 0, 0, 0, 0, 0, 0, 0, 0, 0, 0, 0, 0, 0, 0, 0, 0, 0, 0, 0, 0, 0, 0, 0, 0, 0, 0, 0, 0, 0, 0, 0, 0, 0, 0, 0, 0, 0, 0, 0
0, 0, 17, 3, 1, 10, 17, 25, 32, 61, 105, 76, 114, 142, 186, 196, 196, 216, 246, 243, 219, 249, 250, 251, 238, 238, 216, 207, 220, 188, 175, 193, 165, 163, 154, 147, 144, 127, 126, 114, 104, 79, 62, 47, 33, 18, 2, 0, 0, 0, 0, 0, 0, 0, 0, 0, 0, 0, 0, 0, 0, 0, 0, 0, 0, 0, 0, 0, 0, 0, 0, 0, 0, 0, 0, 0, 0, 0, 0, 0, 0, 0, 0, 0, 0, 0, 0, 0, 0, 0, 0, 0, 0, 0, 0, 0, 0, 0, 0, 0, 0, 0, 0, 0, 0, 0
0, 0, 18, 1, 1, 13, 13, 31, 30, 60, 113, 97, 112, 170, 205, 191, 182, 187, 253, 257, 215, 261, 231, 240, 248, 236, 208, 214, 224, 197, 198, 176, 165, 169, 146, 165, 142, 134, 101, 113, 90, 66, 70, 51, 42, 16, 1, 0, 0, 0, 0, 0, 0, 0, 0, 0, 0, 0, 0, 0, 0, 0, 0, 0, 0, 0, 0, 0, 0, 0, 0, 0, 0, 0, 0, 0, 0, 0, 0, 0, 0, 0, 0, 0, 0, 0, 0, 0, 0, 0, 0, 0, 0, 0, 0, 0, 0, 0, 0, 0, 0, 0, 0, 0, 0, 0
0, 0, 19, 2, 3, 6, 16, 31, 34, 75, 127, 103, 112, 149, 179, 202, 175, 178, 237, 253, 244, 243, 247, 245, 223, 250, 251, 242, 189, 217, 189, 182, 183, 156, 154, 146, 124, 122, 101, 114, 95, 81, 77, 58, 49, 22, 5, 0, 0, 0, 0, 0, 0, 0, 0, 0, 0, 0, 0, 0, 0, 0, 0, 0, 0, 0, 0, 0, 0, 0, 0, 0, 0, 0, 0, 0, 0, 0, 0, 0, 0, 0, 0, 0, 0, 0, 0, 0, 0, 0, 0, 0, 0, 0, 0, 0, 0, 0, 0, 0, 0, 0, 0, 0, 0, 0
0, 0, 20, 2, 4, 10, 22, 15, 44, 69, 110, 86, 128, 127, 189, 219, 190, 207, 187, 227, 258, 247, 238, 211, 247, 230, 241, 215, 243, 178, 214, 214, 171, 189, 170, 124, 135, 130, 99, 109, 83, 63, 71, 51, 43, 29, 0, 0, 0, 0, 0, 0, 0, 0, 0, 0, 0, 0, 0, 0, 0, 0, 0, 0, 0, 0, 0, 0, 0, 0, 0, 0, 0, 0, 0, 0, 0, 0, 0, 0, 0, 0, 0, 0, 0, 0, 0, 0, 0, 0, 0, 0, 0, 0, 0, 0, 0, 0, 0, 0, 0, 0, 0, 0, 0, 0
0, 0, 21, 1, 3, 13, 15, 25, 43, 30, 117, 89, 102, 160, 154, 207, 215, 235, 245, 225, 258, 234, 238, 239, 236, 234, 220, 248, 187, 180, 190, 197, 161, 152, 158, 150, 141, 106, 115, 103, 94, 66, 60, 50, 41, 23, 2, 0, 0, 0, 0, 0, 0, 0, 0, 0, 0, 0, 0, 0, 0, 0, 0, 0, 0, 0, 0, 0, 0, 0, 0, 0, 0, 0, 0, 0, 0, 0, 0, 0, 0, 0, 0, 0, 0, 0, 0, 0, 0, 0, 0, 0, 0, 0, 0, 0, 0, 0, 0, 0, 0, 0, 0, 0, 0, 0
0, 0, 22, 3, 4, 9, 15, 26, 38, 63, 132, 110, 120, 136, 153, 224, 195, 221, 251, 217, 238, 247, 249, 224, 246, 227, 243, 214, 236, 249, 204, 184, 197, 142, 167, 154, 145, 130, 123, 86, 68, 72, 69, 54, 32, 32, 0, 0, 0, 0, 0, 0, 0, 0, 0, 0, 0, 0, 0, 0, 0, 0, 0, 0, 0, 0, 0, 0, 0, 0, 0, 0, 0, 0, 0, 0, 0, 0, 0, 0, 0, 0, 0, 0, 0, 0, 0, 0, 0, 0, 0, 0, 0, 0, 0, 0, 0, 0, 0, 0, 0, 0, 0, 0, 0, 0
0, 0, 23, 0, 3, 11, 18, 25, 25, 49, 103, 107, 110, 146, 172, 192, 192, 187, 228, 250, 266, 268, 253, 261, 257, 252, 232, 229, 180, 205, 216, 211, 143, 148, 149, 147, 176, 136, 110, 104, 94, 81, 65, 58, 55, 29, 0, 0, 0, 0, 0, 0, 0, 0, 0, 0, 0, 0, 0, 0, 0, 0, 0, 0, 0, 0, 0, 0, 0, 0, 0, 0, 0, 0, 0, 0, 0, 0, 0, 0, 0, 0, 0, 0, 0, 0, 0, 0, 0, 0, 0, 0, 0, 0, 0, 0, 0, 0, 0, 0, 0, 0, 0, 0, 0, 0
0, 0, 24, 0, 5, 7, 13, 20, 41, 59, 125, 96, 120, 136, 168, 220, 209, 228, 229, 237, 233, 243, 252, 241, 255, 258, 226, 207, 207, 186, 189, 179, 200, 189, 188, 150, 124, 134, 98, 103, 98, 75, 63, 47, 46, 29, 2, 0, 0, 0, 0, 0, 0, 0, 0, 0, 0, 0, 0, 0, 0, 0, 0, 0, 0, 0, 0, 0, 0, 0, 0, 0, 0, 0, 0, 0, 0, 0, 0, 0, 0, 0, 0, 0, 0, 0, 0, 0, 0, 0, 0, 0, 0, 0, 0, 0, 0, 0, 0, 0, 0, 0, 0, 0, 0, 0
0, 0, 25, 4, 2, 11, 16, 24, 37, 65, 108, 102, 106, 145, 157, 211, 181, 230, 213, 248, 262, 247, 242, 270, 218, 263, 223, 221, 199, 198, 193, 207, 182, 153, 160, 162, 136, 139, 102, 97, 83, 76, 78, 46, 31, 30, 3, 0, 0, 0, 0, 0, 0, 0, 0, 0, 0, 0, 0, 0, 0, 0, 0, 0, 0, 0, 0, 0, 0, 0, 0, 0, 0, 0, 0, 0, 0, 0, 0, 0, 0, 0, 0, 0, 0, 0, 0, 0, 0, 0, 0, 0, 0, 0, 0, 0, 0, 0, 0, 0, 0, 0, 0, 0, 0, 0
0, 0, 26, 1, 1, 5, 15, 32, 36, 47, 118, 94, 108, 144, 170, 222, 208, 223, 216, 239, 231, 254, 271, 235, 281, 226, 255, 219, 189, 217, 202, 177, 183, 189, 135, 128, 138, 115, 105, 105, 101, 67, 63, 56, 44, 18, 1, 0, 0, 0, 0, 0, 0, 0, 0, 0, 0, 0, 0, 0, 0, 0, 0, 0, 0, 0, 0, 0, 0, 0, 0, 0, 0, 0, 0, 0, 0, 0, 0, 0, 0, 0, 0, 0, 0, 0, 0, 0, 0, 0, 0, 0, 0, 0, 0, 0, 0, 0, 0, 0, 0, 0, 0, 0, 0, 0
0, 0, 27, 4, 5, 4, 14, 24, 35, 63, 123, 89, 122, 129, 161, 195, 202, 230, 245, 275, 255, 247, 253, 278, 210, 252, 211, 229, 209, 227, 205, 205, 188, 160, 162, 162, 152, 138, 110, 103, 100, 75, 68, 57, 40, 17, 1, 0, 0, 0, 0, 0, 0, 0, 0, 0, 0, 0, 0, 0, 0, 0, 0, 0, 0, 0, 0, 0, 0, 0, 0, 0, 0, 0, 0, 0, 0, 0, 0, 0, 0, 0, 0, 0, 0, 0, 0, 0, 0, 0, 0, 0, 0, 0, 0, 0, 0, 0, 0, 0, 0, 0, 0, 0, 0, 0
0, 0, 28, 5, 4, 6, 8, 28, 41, 46, 122, 91, 106, 158, 164, 183, 182, 206, 202, 250, 267, 260, 245, 248, 262, 240, 236, 250, 212, 197, 182, 161, 196, 179, 168, 162, 153, 121, 116, 89, 98, 77, 68, 57, 37, 17, 1, 0, 0, 0, 0, 0, 0, 0, 0, 0, 0, 0, 0, 0, 0, 0, 0, 0, 0, 0, 0, 0, 0, 0, 0, 0, 0, 0, 0, 0, 0, 0, 0, 0, 0, 0, 0, 0, 0, 0, 0, 0, 0, 0, 0, 0, 0, 0, 0, 0, 0, 0, 0, 0, 0, 0, 0, 0, 0, 0
0, 0, 29, 6, 2, 7, 12, 24, 35, 56, 102, 98, 110, 142, 173, 174, 192, 222, 239, 260, 239, 264, 223, 247, 219, 266, 268, 191, 222, 229, 187, 178, 166, 149, 189, 140, 126, 135, 87, 110, 85, 83, 68, 59, 24, 19, 1, 0, 0, 0, 0, 0, 0, 0, 0, 0, 0, 0, 0, 0, 0, 0, 0, 0, 0, 0, 0, 0, 0, 0, 0, 0, 0, 0, 0, 0, 0, 0, 0, 0, 0, 0, 0, 0, 0, 0, 0, 0, 0, 0, 0, 0, 0, 0, 0, 0, 0, 0, 0, 0, 0, 0, 0, 0, 0, 0
0, 0, 30, 1, 1, 7, 14, 27, 41, 67, 103, 119, 110, 156, 172, 206, 204, 222, 260, 243, 244, 251, 213, 267, 231, 213, 252, 219, 216, 195, 165, 175, 168, 166, 158, 142, 130, 160, 139, 103, 97, 82, 71, 43, 38, 22, 0, 0, 0, 0, 0, 0, 0, 0, 0, 0, 0, 0, 0, 0, 0, 0, 0, 0, 0, 0, 0, 0, 0, 0, 0, 0, 0, 0, 0, 0, 0, 0, 0, 0, 0, 0, 0, 0, 0, 0, 0, 0, 0, 0, 0, 0, 0, 0, 0, 0, 0, 0, 0, 0, 0, 0, 0, 0, 0, 0
0, 0, 31, 2, 3, 6, 22, 33, 39, 52, 120, 98, 101, 132, 185, 207, 227, 196, 239, 250, 242, 238, 277, 281, 229, 244, 238, 234, 225, 226, 213, 186, 180, 171, 156, 147, 137, 140, 120, 105, 100, 81, 80, 64, 39, 19, 1, 0, 0, 0, 0, 0, 0, 0, 0, 0, 0, 0, 0, 0, 0, 0, 0, 0, 0, 0, 0, 0, 0, 0, 0, 0, 0, 0, 0, 0, 0, 0, 0, 0, 0, 0, 0, 0, 0, 0, 0, 0, 0, 0, 0, 0, 0, 0, 0, 0, 0, 0, 0, 0, 0, 0, 0, 0, 0, 0
0, 0, 32, 0, 3, 6, 14, 33, 33, 53, 125, 103, 115, 120, 158, 213, 173, 187, 235, 242, 230, 289, 224, 267, 264, 249, 235, 219, 213, 189, 186, 194, 191, 155, 159, 169, 109, 127, 125, 93, 99, 88, 65, 51, 33, 30, 3, 0, 0, 0, 0, 0, 0, 0, 0, 0, 0, 0, 0, 0, 0, 0, 0, 0, 0, 0, 0, 0, 0, 0, 0, 0, 0, 0, 0, 0, 0, 0, 0, 0, 0, 0, 0, 0, 0, 0, 0, 0, 0, 0, 0, 0, 0, 0, 0, 0, 0, 0, 0, 0, 0, 0, 0, 0, 0, 0
0, 0, 33, 1, 5, 8, 16, 19, 41, 52, 103, 96, 136, 161, 162, 191, 207, 204, 228, 266, 262, 253, 252, 234, 285, 260, 235, 221, 201, 199, 181, 203, 184, 168, 142, 144, 151, 128, 112, 113, 95, 79, 75, 44, 40, 22, 2, 0, 0, 0, 0, 0, 0, 0, 0, 0, 0, 0, 0, 0, 0, 0, 0, 0, 0, 0, 0, 0, 0, 0, 0, 0, 0, 0, 0, 0, 0, 0, 0, 0, 0, 0, 0, 0, 0, 0, 0, 0, 0, 0, 0, 0, 0, 0, 0, 0, 0, 0, 0, 0, 0, 0, 0, 0, 0, 0
0, 0, 34, 4, 4, 8, 13, 20, 44, 50, 105, 91, 104, 162, 176, 200, 223, 205, 230, 244, 241, 236, 254, 225, 267, 252, 259, 217, 216, 206, 199, 206, 178, 192, 131, 154, 115, 144, 95, 107, 85, 81, 77, 59, 37, 20, 0, 0, 0, 0, 0, 0, 0, 0, 0, 0, 0, 0, 0, 0, 0, 0, 0, 0, 0, 0, 0, 0, 0, 0, 0, 0, 0, 0, 0, 0, 0, 0, 0, 0, 0, 0, 0, 0, 0, 0, 0, 0, 0, 0, 0, 0, 0, 0, 0, 0, 0, 0, 0, 0, 0, 0, 0, 0, 0, 0
0, 0, 35, 1, 2, 5, 10, 31, 38, 65, 123, 100, 120, 149, 184, 190, 204, 234, 224, 231, 252, 241, 239, 266, 207, 228, 219, 227, 208, 195, 219, 191, 168, 167, 147, 139, 132, 115, 107, 102, 101, 87, 75, 47, 48, 27, 2, 0, 0, 0, 0, 0, 0, 0, 0, 0, 0, 0, 0, 0, 0, 0, 0, 0, 0, 0, 0, 0, 0, 0, 0, 0, 0, 0, 0, 0, 0, 0, 0, 0, 0, 0, 0, 0, 0, 0, 0, 0, 0, 0, 0, 0, 0, 0, 0, 0, 0, 0, 0, 0, 0, 0, 0, 0, 0, 0
0, 0, 36, 1, 7, 6, 16, 36, 42, 49, 109, 93, 99, 129, 174, 203, 203, 214, 224, 212, 242, 289, 272, 236, 233, 228, 246, 254, 215, 233, 168, 204, 195, 167, 151, 166, 144, 131, 114, 102, 111, 68, 68, 42, 44, 21, 0, 0, 0, 0, 0, 0, 0, 0, 0, 0, 0, 0, 0, 0, 0, 0, 0, 0, 0, 0, 0, 0, 0, 0, 0, 0, 0, 0, 0, 0, 0, 0, 0, 0, 0, 0, 0, 0, 0, 0, 0, 0, 0, 0, 0, 0, 0, 0, 0, 0, 0, 0, 0, 0, 0, 0, 0, 0, 0, 0
0, 0, 37, 1, 6, 8, 11, 22, 48, 72, 113, 81, 111, 155, 172, 207, 218, 211, 209, 237, 246, 259, 236, 254, 239, 277, 237, 236, 224, 206, 205, 194, 182, 158, 149, 151, 130, 134, 111, 84, 91, 84, 59, 67, 42, 18, 1, 0, 0, 0, 0, 0, 0, 0, 0, 0, 0, 0, 0, 0, 0, 0, 0, 0, 0, 0, 0, 0, 0, 0, 0, 0, 0, 0, 0, 0, 0, 0, 0, 0, 0, 0, 0, 0, 0, 0, 0, 0, 0, 0, 0, 0, 0, 0, 0, 0, 0, 0, 0, 0, 0, 0, 0, 0, 0, 0
0, 0, 38, 3, 4, 10, 18, 20, 36, 62, 120, 113, 110, 113, 156, 192, 221, 252, 208, 227, 248, 301, 248, 228, 216, 239, 246, 200, 178, 219, 220, 208, 198, 184, 170, 146, 141, 116, 136, 98, 94, 85, 58, 55, 37, 20, 2, 0, 0, 0, 0, 0, 0, 0, 0, 0, 0, 0, 0, 0, 0, 0, 0, 0, 0, 0, 0, 0, 0, 0, 0, 0, 0, 0, 0, 0, 0, 0, 0, 0, 0, 0, 0, 0, 0, 0, 0, 0, 0, 0, 0, 0, 0, 0, 0, 0, 0, 0, 0, 0, 0, 0, 0, 0, 0, 0
0, 0, 39, 1, 2, 13, 20, 28, 51, 55, 103, 87, 106, 123, 188, 209, 206, 205, 244, 254, 257, 246, 264, 253, 214, 257, 208, 258, 198, 178, 200, 174, 201, 143, 157, 149, 134, 128, 126, 94, 84, 84, 70, 62, 34, 19, 1, 0, 0, 0, 0, 0, 0, 0, 0, 0, 0, 0, 0, 0, 0, 0, 0, 0, 0, 0, 0, 0, 0, 0, 0, 0, 0, 0, 0, 0, 0, 0, 0, 0, 0, 0, 0, 0, 0, 0, 0, 0, 0, 0, 0, 0, 0, 0, 0, 0, 0, 0, 0, 0, 0, 0, 0, 0, 0, 0
0, 0, 40, 3, 5, 9, 18, 23, 41, 55, 114, 97, 124, 141, 135, 179, 217, 212, 229, 225, 240, 271, 231, 242, 268, 245, 219, 225, 243, 194, 228, 211, 163, 174, 151, 146, 136, 131, 109, 95, 102, 88, 61, 66, 41, 16, 0, 0, 0, 0, 0, 0, 0, 0, 0, 0, 0, 0, 0, 0, 0, 0, 0, 0, 0, 0, 0, 0, 0, 0, 0, 0, 0, 0, 0, 0, 0, 0, 0, 0, 0, 0, 0, 0, 0, 0, 0, 0, 0, 0, 0, 0, 0, 0, 0, 0, 0, 0, 0, 0, 0, 0, 0, 0, 0, 0
0, 0, 41, 3, 5, 8, 11, 28, 40, 42, 89, 83, 111, 137, 159, 187, 184, 209, 203, 236, 238, 224, 220, 217, 221, 226, 226, 228, 222, 156, 184, 164, 189, 181, 138, 147, 110, 124, 102, 103, 116, 78, 59, 73, 38, 15, 1, 0, 0, 0, 0, 0, 0, 0, 0, 0, 0, 0, 0, 0, 0, 0, 0, 0, 0, 0, 0, 0, 0, 0, 0, 0, 0, 0, 0, 0, 0, 0, 0, 0, 0, 0, 0, 0, 0, 0, 0, 0, 0, 0, 0, 0, 0, 0, 0, 0, 0, 0, 0, 0, 0, 0, 0, 0, 0, 0
0, 0, 42, 7, 2, 9, 7, 14, 26, 37, 78, 69, 72, 121, 137, 161, 169, 142, 188, 192, 199, 220, 193, 196, 188, 189, 157, 201, 175, 167, 183, 161, 162, 134, 141, 112, 121, 106, 102, 95, 79, 85, 47, 48, 34, 13, 2, 0, 0, 0, 0, 0, 0, 0, 0, 0, 0, 0, 0, 0, 0, 0, 0, 0, 0, 0, 0, 0, 0, 0, 0, 0, 0, 0, 0, 0, 0, 0, 0, 0, 0, 0, 0, 0, 0, 0, 0, 0, 0, 0, 0, 0, 0, 0, 0, 0, 0, 0, 0, 0, 0, 0, 0, 0, 0, 0
0, 0, 43, 2, 1, 8, 8, 13, 23, 38, 71, 64, 67, 82, 98, 117, 141, 133, 162, 160, 170, 155, 176, 144, 170, 167, 189, 153, 155, 132, 152, 141, 113, 109, 148, 121, 89, 76, 69, 64, 77, 55, 51, 36, 31, 15, 1, 0, 0, 0, 0, 0, 0, 0, 0, 0, 0, 0, 0, 0, 0, 0, 0, 0, 0, 0, 0, 0, 0, 0, 0, 0, 0, 0, 0, 0, 0, 0, 0, 0, 0, 0, 0, 0, 0, 0, 0, 0, 0, 0, 0, 0, 0, 0, 0, 0, 0, 0, 0, 0, 0, 0, 0, 0, 0, 0
0, 0, 44, 0, 3, 4, 6, 5, 12, 32, 51, 52, 67, 82, 86, 100, 90, 104, 138, 139, 125, 150, 119, 134, 139, 145, 134, 135, 151, 114, 125, 119, 81, 124, 100, 87, 82, 69, 72, 66, 61, 65, 40, 40, 21, 14, 0, 0, 0, 0, 0, 0, 0, 0, 0, 0, 0, 0, 0, 0, 0, 0, 0, 0, 0, 0, 0, 0, 0, 0, 0, 0, 0, 0, 0, 0, 0, 0, 0, 0, 0, 0, 0, 0, 0, 0, 0, 0, 0, 0, 0, 0, 0, 0, 0, 0, 0, 0, 0, 0, 0, 0, 0, 0, 0, 0
0, 0, 45, 0, 3, 3, 1, 8, 12, 20, 42, 28, 46, 59, 69, 81, 76, 91, 93, 92, 135, 109, 94, 135, 129, 133, 127, 138, 95, 126, 101, 109, 104, 76, 71, 79, 69, 70, 73, 57, 53, 45, 33, 29, 20, 6, 1, 0, 0, 0, 0, 0, 0, 0, 0, 0, 0, 0, 0, 0, 0, 0, 0, 0, 0, 0, 0, 0, 0, 0, 0, 0, 0, 0, 0, 0, 0, 0, 0, 0, 0, 0, 0, 0, 0, 0, 0, 0, 0, 0, 0, 0, 0, 0, 0, 0, 0, 0, 0, 0, 0, 0, 0, 0, 0, 0
0, 0, 46, 1, 1, 2, 2, 5, 9, 15, 27, 19, 27, 48, 56, 64, 51, 72, 94, 100, 112, 99, 97, 105, 97, 123, 103, 97, 98, 92, 114, 94, 88, 80, 78, 70, 58, 49, 48, 54, 63, 33, 42, 27, 25, 14, 1, 0, 0, 0, 0, 0, 0, 0, 0, 0, 0, 0, 0, 0, 0, 0, 0, 0, 0, 0, 0, 0, 0, 0, 0, 0, 0, 0, 0, 0, 0, 0, 0, 0, 0, 0, 0, 0, 0, 0, 0, 0, 0, 0, 0, 0, 0, 0, 0, 0, 0, 0, 0, 0, 0, 0, 0, 0, 0, 0
0, 0, 47, 0, 0, 1, 1, 1, 3, 7, 28, 18, 20, 32, 43, 54, 56, 87, 80, 80, 99, 81, 73, 90, 94, 109, 101, 95, 69, 89, 109, 97, 83, 68, 61, 66, 58, 57, 54, 42, 25, 48, 25, 36, 17, 9, 2, 0, 0, 0, 0, 0, 0, 0, 0, 0, 0, 0, 0, 0, 0, 0, 0, 0, 0, 0, 0, 0, 0, 0, 0, 0, 0, 0, 0, 0, 0, 0, 0, 0, 0, 0, 0, 0, 0, 0, 0, 0, 0, 0, 0, 0, 0, 0, 0, 0, 0, 0, 0, 0, 0, 0, 0, 0, 0, 0
0, 0, 48, 0, 0, 0, 1, 1, 5, 7, 12, 16, 14, 31, 34, 45, 49, 46, 72, 55, 81, 83, 96, 90, 101, 92, 76, 71, 75, 80, 81, 81, 72, 73, 76, 68, 52, 55, 58, 53, 49, 37, 31, 27, 22, 6, 0, 0, 0, 0, 0, 0, 0, 0, 0, 0, 0, 0, 0, 0, 0, 0, 0, 0, 0, 0, 0, 0, 0, 0, 0, 0, 0, 0, 0, 0, 0, 0, 0, 0, 0, 0, 0, 0, 0, 0, 0, 0, 0, 0, 0, 0, 0, 0, 0, 0, 0, 0, 0, 0, 0, 0, 0, 0, 0, 0
0, 0, 49, 3, 0, 1, 1, 1, 5, 8, 19, 9, 11, 23, 41, 44, 41, 45, 72, 76, 80, 91, 98, 75, 101, 76, 73, 93, 72, 80, 71, 70, 63, 74, 57, 68, 58, 58, 55, 34, 34, 36, 24, 24, 19, 8, 1, 0, 0, 0, 0, 0, 0, 0, 0, 0, 0, 0, 0, 0, 0, 0, 0, 0, 0, 0, 0, 0, 0, 0, 0, 0, 0, 0, 0, 0, 0, 0, 0, 0, 0, 0, 0, 0, 0, 0, 0, 0, 0, 0, 0, 0, 0, 0, 0, 0, 0, 0, 0, 0, 0, 0, 0, 0, 0, 0
0, 0, 50, 0, 2, 0, 2, 0, 4, 4, 29, 14, 15, 24, 32, 44, 47, 44, 72, 64, 97, 74, 87, 76, 70, 91, 71, 86, 92, 95, 79, 76, 63, 62, 63, 49, 51, 61, 38, 60, 26, 32, 21, 30, 16, 6, 0, 0, 0, 0, 0, 0, 0, 0, 0, 0, 0, 0, 0, 0, 0, 0, 0, 0, 0, 0, 0, 0, 0, 0, 0, 0, 0, 0, 0, 0, 0, 0, 0, 0, 0, 0, 0, 0, 0, 0, 0, 0, 0, 0, 0, 0, 0, 0, 0, 0, 0, 0, 0, 0, 0, 0, 0, 0, 0, 0
0, 0, 51, 2, 1, 0, 2, 1, 3, 3, 22, 19, 19, 33, 37, 41, 51, 68, 52, 60, 59, 81, 58, 92, 93, 100, 90, 82, 105, 74, 74, 81, 77, 60, 81, 70, 46, 67, 56, 49, 47, 32, 27, 27, 19, 10, 1, 0, 0, 0, 0, 0, 0, 0, 0, 0, 0, 0, 0, 0, 0, 0, 0, 0, 0, 0, 0, 0, 0, 0, 0, 0, 0, 0, 0, 0, 0, 0, 0, 0, 0, 0, 0, 0, 0, 0, 0, 0, 0, 0, 0, 0, 0, 0, 0, 0, 0, 0, 0, 0, 0, 0, 0, 0, 0, 0
0, 0, 52, 2, 1, 0, 4, 4, 1, 7, 28, 18, 23, 29, 39, 54, 52, 44, 69, 81, 79, 82, 82, 95, 112, 88, 97, 82, 90, 69, 91, 92, 84, 71, 73, 64, 84, 76, 54, 40, 39, 33, 42, 17, 24, 13, 0, 0, 0, 0, 0, 0, 0, 0, 0, 0, 0, 0, 0, 0, 0, 0, 0, 0, 0, 0, 0, 0, 0, 0, 0, 0, 0, 0, 0, 0, 0, 0, 0, 0, 0, 0, 0, 0, 0, 0, 0, 0, 0, 0, 0, 0, 0, 0, 0, 0, 0, 0, 0, 0, 0, 0, 0, 0, 0, 0
0, 0, 53, 1, 0, 1, 4, 4, 5, 8, 27, 21, 37, 52, 57, 65, 65, 70, 88, 110, 85, 92, 80, 80, 94, 121, 117, 74, 120, 104, 93, 76, 64, 80, 77, 81, 80, 69, 58, 43, 33, 35, 24, 26, 27, 12, 1, 0, 0, 0, 0, 0, 0, 0, 0, 0, 0, 0, 0, 0, 0, 0, 0, 0, 0, 0, 0, 0, 0, 0, 0, 0, 0, 0, 0, 0, 0, 0, 0, 0, 0, 0, 0, 0, 0, 0, 0, 0, 0, 0, 0, 0, 0, 0, 0, 0, 0, 0, 0, 0, 0, 0, 0, 0, 0, 0
0, 0, 54, 1, 2, 5, 8, 7, 11, 13, 42, 31, 42, 57, 87, 98, 100, 88, 101, 101, 112, 119, 135, 135, 106, 112, 138, 120, 106, 84, 108, 104, 89, 93, 72, 82, 78, 74, 67, 57, 51, 51, 42, 35, 17, 11, 1, 0, 0, 0, 0, 0, 0, 0, 0, 0, 0, 0, 0, 0, 0, 0, 0, 0, 0, 0, 0, 0, 0, 0, 0, 0, 0, 0, 0, 0, 0, 0, 0, 0, 0, 0, 0, 0, 0, 0, 0, 0, 0, 0, 0, 0, 0, 0, 0, 0, 0, 0, 0, 0, 0, 0, 0, 0, 0, 0
0, 0, 55, 2, 1, 6, 9, 11, 20, 22, 56, 44, 51, 72, 76, 103, 113, 106, 118, 136, 123, 127, 142, 149, 146, 110, 157, 124, 142, 132, 126, 119, 117, 127, 95, 94, 91, 72, 71, 61, 51, 45, 37, 40, 27, 12, 0, 0, 0, 0, 0, 0, 0, 0, 0, 0, 0, 0, 0, 0, 0, 0, 0, 0, 0, 0, 0, 0, 0, 0, 0, 0, 0, 0, 0, 0, 0, 0, 0, 0, 0, 0, 0, 0, 0, 0, 0, 0, 0, 0, 0, 0, 0, 0, 0, 0, 0, 0, 0, 0, 0, 0, 0, 0, 0, 0
0, 0, 56, 2, 1, 8, 9, 16, 21, 40, 57, 67, 72, 80, 104, 122, 131, 114, 153, 174, 181, 156, 156, 162, 173, 156, 177, 138, 156, 145, 118, 145, 139, 112, 126, 110, 106, 72, 105, 79, 65, 60, 41, 39, 25, 13, 0, 0, 0, 0, 0, 0, 0, 0, 0, 0, 0, 0, 0, 0, 0, 0, 0, 0, 0, 0, 0, 0, 0, 0, 0, 0, 0, 0, 0, 0, 0, 0, 0, 0, 0, 0, 0, 0, 0, 0, 0, 0, 0, 0, 0, 0, 0, 0, 0, 0, 0, 0, 0, 0, 0, 0, 0, 0, 0, 0
0, 0, 57, 3, 1, 3, 7, 16, 33, 44, 73, 83, 93, 100, 119, 141, 149, 165, 163, 169, 207, 184, 198, 202, 225, 185, 161, 190, 167, 155, 164, 138, 133, 139, 123, 104, 91, 85, 97, 111, 78, 63, 70, 50, 33, 15, 0, 0, 0, 0, 0, 0, 0, 0, 0, 0, 0, 0, 0, 0, 0, 0, 0, 0, 0, 0, 0, 0, 0, 0, 0, 0, 0, 0, 0, 0, 0, 0, 0, 0, 0, 0, 0, 0, 0, 0, 0, 0, 0, 0, 0, 0, 0, 0, 0, 0, 0, 0, 0, 0, 0, 0, 0, 0, 0, 0
0, 0, 58, 4, 0, 7, 16, 24, 30, 55, 96, 85, 86, 142, 155, 179, 193, 188, 238, 210, 245, 239, 263, 238, 236, 219, 242, 235, 196, 189, 206, 191, 184, 177, 143, 155, 136, 124, 109, 99, 81, 59, 55, 56, 36, 21, 0, 0, 0, 0, 0, 0, 0, 0, 0, 0, 0, 0, 0, 0, 0, 0, 0, 0, 0, 0, 0, 0, 0, 0, 0, 0, 0, 0, 0, 0, 0, 0, 0, 0, 0, 0, 0, 0, 0, 0, 0, 0, 0, 0, 0, 0, 0, 0, 0, 0, 0, 0, 0, 0, 0, 0, 0, 0, 0, 0
0, 0, 59, 1, 7, 11, 17, 22, 37, 67, 120, 101, 120, 151, 165, 193, 234, 188, 213, 244, 230, 266, 278, 274, 240, 239, 255, 234, 188, 220, 231, 190, 179, 170, 148, 133, 148, 135, 116, 113, 85, 81, 58, 54, 32, 22, 1, 0, 0, 0, 0, 0, 0, 0, 0, 0, 0, 0, 0, 0, 0, 0, 0, 0, 0, 0, 0, 0, 0, 0, 0, 0, 0, 0, 0, 0, 0, 0, 0, 0, 0, 0, 0, 0, 0, 0, 0, 0, 0, 0, 0, 0, 0, 0, 0, 0, 0, 0, 0, 0, 0, 0, 0, 0, 0, 0
0, 0, 60, 0, 2, 3, 14, 27, 30, 53, 124, 96, 119, 148, 186, 181, 202, 222, 219, 245, 274, 207, 263, 244, 261, 211, 241, 214, 245, 209, 200, 181, 166, 176, 164, 152, 162, 108, 138, 75, 117, 79, 70, 53, 35, 17, 0, 0, 0, 0, 0, 0, 0, 0, 0, 0, 0, 0, 0, 0, 0, 0, 0, 0, 0, 0, 0, 0, 0, 0, 0, 0, 0, 0, 0, 0, 0, 0, 0, 0, 0, 0, 0, 0, 0, 0, 0, 0, 0, 0, 0, 0, 0, 0, 0, 0, 0, 0, 0, 0, 0, 0, 0, 0, 0, 0
0, 0, 61, 5, 3, 5, 12, 20, 45, 55, 122, 79, 114, 154, 146, 180, 188, 216, 228, 283, 236, 256, 252, 236, 254, 208, 236, 215, 214, 213, 188, 181, 208, 176, 164, 146, 132, 147, 123, 93, 105, 89, 72, 39, 36, 17, 3, 0, 0, 0, 0, 0, 0, 0, 0, 0, 0, 0, 0, 0, 0, 0, 0, 0, 0, 0, 0, 0, 0, 0, 0, 0, 0, 0, 0, 0, 0, 0, 0, 0, 0, 0, 0, 0, 0, 0, 0, 0, 0, 0, 0, 0, 0, 0, 0, 0, 0, 0, 0, 0, 0, 0, 0, 0, 0, 0
0, 0, 62, 0, 5, 9, 15, 27, 35, 59, 131, 88, 108, 128, 194, 173, 198, 223, 244, 253, 215, 284, 247, 267, 254, 233, 214, 218, 237, 217, 192, 200, 167, 182, 159, 144, 141, 126, 146, 137, 103, 93, 83, 56, 22, 24, 4, 0, 0, 0, 0, 0, 0, 0, 0, 0, 0, 0, 0, 0, 0, 0, 0, 0, 0, 0, 0, 0, 0, 0, 0, 0, 0, 0, 0, 0, 0, 0, 0, 0, 0, 0, 0, 0, 0, 0, 0, 0, 0, 0, 0, 0, 0, 0, 0, 0, 0, 0, 0, 0, 0, 0, 0, 0, 0, 0
0, 0, 63, 6, 4, 11, 14, 32, 44, 59, 117, 101, 128, 150, 162, 184, 195, 202, 225, 233, 251, 248, 300, 245, 261, 253, 254, 232, 240, 211, 206, 210, 164, 174, 150, 167, 115, 134, 100, 99, 88, 71, 61, 61, 38, 14, 2, 0, 0, 0, 0, 0, 0, 0, 0, 0, 0, 0, 0, 0, 0, 0, 0, 0, 0, 0, 0, 0, 0, 0, 0, 0, 0, 0, 0, 0, 0, 0, 0, 0, 0, 0, 0, 0, 0, 0, 0, 0, 0, 0, 0, 0, 0, 0, 0, 0, 0, 0, 0, 0, 0, 0, 0, 0, 0, 0
0, 0, 64, 4, 2, 7, 18, 34, 36, 56, 119, 101, 104, 145, 181, 184, 214, 217, 191, 241, 228, 235, 257, 248, 255, 247, 247, 197, 213, 202, 199, 200, 199, 141, 148, 130, 160, 147, 128, 114, 111, 84, 70, 54, 30, 14, 1, 0, 0, 0, 0, 0, 0, 0, 0, 0, 0, 0, 0, 0, 0, 0, 0, 0, 0, 0, 0, 0, 0, 0, 0, 0, 0, 0, 0, 0, 0, 0, 0, 0, 0, 0, 0, 0, 0, 0, 0, 0, 0, 0, 0, 0, 0, 0, 0, 0, 0, 0, 0, 0, 0, 0, 0, 0, 0, 0
0, 0, 65, 1, 2, 9, 6, 30, 33, 55, 119, 90, 130, 163, 175, 208, 217, 233, 208, 246, 257, 244, 253, 238, 238, 249, 254, 251, 224, 218, 190, 196, 177, 153, 143, 168, 161, 131, 100, 131, 80, 80, 60, 43, 31, 19, 3, 0, 0, 0, 0, 0, 0, 0, 0, 0, 0, 0, 0, 0, 0, 0, 0, 0, 0, 0, 0, 0, 0, 0, 0, 0, 0, 0, 0, 0, 0, 0, 0, 0, 0, 0, 0, 0, 0, 0, 0, 0, 0, 0, 0, 0, 0, 0, 0, 0, 0, 0, 0, 0, 0, 0, 0, 0, 0, 0
0, 0, 66, 2, 5, 7, 21, 25, 44, 56, 103, 82, 95, 161, 174, 192, 175, 203, 223, 245, 248, 223, 243, 256, 243, 237, 250, 192, 229, 194, 180, 206, 186, 163, 157, 155, 151, 91, 116, 97, 89, 87, 60, 48, 37, 11, 2, 0, 0, 0, 0, 0, 0, 0, 0, 0, 0, 0, 0, 0, 0, 0, 0, 0, 0, 0, 0, 0, 0, 0, 0, 0, 0, 0, 0, 0, 0, 0, 0, 0, 0, 0, 0, 0, 0, 0, 0, 0, 0, 0, 0, 0, 0, 0, 0, 0, 0, 0, 0, 0, 0, 0, 0, 0, 0, 0
0, 0, 67, 2, 1, 7, 10, 26, 40, 63, 124, 93, 111, 132, 181, 195, 180, 227, 210, 236, 267, 261, 262, 213, 247, 233, 208, 247, 200, 192, 187, 191, 192, 161, 144, 132, 138, 121, 102, 111, 97, 74, 58, 39, 49, 26, 1, 0, 0, 0, 0, 0, 0, 0, 0, 0, 0, 0, 0, 0, 0, 0, 0, 0, 0, 0, 0, 0, 0, 0, 0, 0, 0, 0, 0, 0, 0, 0, 0, 0, 0, 0, 0, 0, 0, 0, 0, 0, 0, 0, 0, 0, 0, 0, 0, 0, 0, 0, 0, 0, 0, 0, 0, 0, 0, 0
0, 0, 68, 4, 1, 10, 14, 24, 50, 50, 115, 77, 121, 141, 157, 201, 185, 196, 232, 283, 223, 248, 249, 252, 266, 262, 248, 230, 229, 187, 195, 199, 172, 172, 147, 138, 116, 142, 124, 92, 80, 95, 75, 53, 38, 23, 2, 0, 0, 0, 0, 0, 0, 0, 0, 0, 0, 0, 0, 0, 0, 0, 0, 0, 0, 0, 0, 0, 0, 0, 0, 0, 0, 0, 0, 0, 0, 0, 0, 0, 0, 0, 0, 0, 0, 0, 0, 0, 0, 0, 0, 0, 0, 0, 0, 0, 0, 0, 0, 0, 0, 0, 0, 0, 0, 0
0, 0, 69, 0, 1, 12, 16, 33, 39, 55, 118, 93, 118, 154, 174, 199, 201, 217, 211, 281, 224, 255, 258, 263, 259, 222, 220, 247, 231, 203, 188, 147, 210, 150, 157, 140, 139, 109, 102, 100, 104, 88, 84, 53, 45, 23, 2, 0, 0, 0, 0, 0, 0, 0, 0, 0, 0, 0, 0, 0, 0, 0, 0, 0, 0, 0, 0, 0, 0, 0, 0, 0, 0, 0, 0, 0, 0, 0, 0, 0, 0, 0, 0, 0, 0, 0, 0, 0, 0, 0, 0, 0, 0, 0, 0, 0, 0, 0, 0, 0, 0, 0, 0, 0, 0, 0
0, 0, 70, 3, 4, 8, 13, 25, 39, 56, 121, 100, 118, 147, 152, 213, 197, 232, 225, 249, 231, 258, 260, 240, 256, 239, 230, 221, 220, 186, 220, 181, 179, 179, 147, 133, 130, 142, 125, 90, 87, 67, 78, 48, 38, 16, 1, 0, 0, 0, 0, 0, 0, 0, 0, 0, 0, 0, 0, 0, 0, 0, 0, 0, 0, 0, 0, 0, 0, 0, 0, 0, 0, 0, 0, 0, 0, 0, 0, 0, 0, 0, 0, 0, 0, 0, 0, 0, 0, 0, 0, 0, 0, 0, 0, 0, 0, 0, 0, 0, 0, 0, 0, 0, 0, 0
0, 0, 71, 4, 2, 9, 16, 23, 36, 61, 125, 98, 122, 126, 175, 193, 203, 232, 218, 276, 234, 279, 268, 255, 270, 220, 249, 237, 199, 202, 209, 145, 176, 161, 146, 134, 136, 129, 96, 109, 97, 83, 63, 65, 33, 31, 0, 0, 0, 0, 0, 0, 0, 0, 0, 0, 0, 0, 0, 0, 0, 0, 0, 0, 0, 0, 0, 0, 0, 0, 0, 0, 0, 0, 0, 0, 0, 0, 0, 0, 0, 0, 0, 0, 0, 0, 0, 0, 0, 0, 0, 0, 0, 0, 0, 0, 0, 0, 0, 0, 0, 0, 0, 0, 0, 0
0, 0, 72, 3, 3, 8, 11, 45, 40, 64, 120, 92, 123, 140, 161, 212, 198, 195, 221, 221, 228, 250, 266, 248, 234, 207, 238, 238, 248, 198, 220, 193, 192, 190, 152, 125, 128, 128, 110, 111, 86, 80, 64, 67, 42, 27, 1, 0, 0, 0, 0, 0, 0, 0, 0, 0, 0, 0, 0, 0, 0, 0, 0, 0, 0, 0, 0, 0, 0, 0, 0, 0, 0, 0, 0, 0, 0, 0, 0, 0, 0, 0, 0, 0, 0, 0, 0, 0, 0, 0, 0, 0, 0, 0, 0, 0, 0, 0, 0, 0, 0, 0, 0, 0, 0, 0
0, 0, 73, 6, 5, 7, 14, 21, 43, 51, 103, 92, 127, 110, 187, 214, 190, 228, 212, 218, 254, 259, 272, 268, 274, 267, 236, 223, 235, 213, 195, 206, 184, 159, 178, 148, 128, 138, 120, 120, 96, 68, 68, 55, 33, 23, 3, 0, 0, 0, 0, 0, 0, 0, 0, 0, 0, 0, 0, 0, 0, 0, 0, 0, 0, 0, 0, 0, 0, 0, 0, 0, 0, 0, 0, 0, 0, 0, 0, 0, 0, 0, 0, 0, 0, 0, 0, 0, 0, 0, 0, 0, 0, 0, 0, 0, 0, 0, 0, 0, 0, 0, 0, 0, 0, 0
0, 0, 74, 4, 6, 10, 13, 22, 39, 60, 114, 105, 112, 137, 169, 200, 211, 227, 249, 263, 225, 268, 245, 267, 239, 237, 238, 222, 205, 202, 184, 191, 168, 171, 169, 153, 138, 133, 122, 113, 64, 72, 68, 48, 40, 17, 2, 0, 0, 0, 0, 0, 0, 0, 0, 0, 0, 0, 0, 0, 0, 0, 0, 0, 0, 0, 0, 0, 0, 0, 0, 0, 0, 0, 0, 0, 0, 0, 0, 0, 0, 0, 0, 0, 0, 0, 0, 0, 0, 0, 0, 0, 0, 0, 0, 0, 0, 0, 0, 0, 0, 0, 0, 0, 0, 0
0, 0, 75, 9, 1, 14, 14, 17, 40, 58, 114, 107, 117, 118, 171, 215, 196, 208, 234, 258, 220, 248, 246, 263, 287, 238, 284, 189, 181, 223, 187, 178, 193, 180, 143, 135, 127, 135, 122, 99, 80, 91, 66, 71, 40, 19, 0, 0, 0, 0, 0, 0, 0, 0, 0, 0, 0, 0, 0, 0, 0, 0, 0, 0, 0, 0, 0, 0, 0, 0, 0, 0, 0, 0, 0, 0, 0, 0, 0, 0, 0, 0, 0, 0, 0, 0, 0, 0, 0, 0, 0, 0, 0, 0, 0, 0, 0, 0, 0, 0, 0, 0, 0, 0, 0, 0
0, 0, 76, 2, 3, 4, 14, 21, 43, 80, 108, 97, 106, 158, 202, 210, 187, 204, 237, 229, 245, 262, 229, 253, 238, 253, 223, 220, 223, 218, 212, 180, 178, 167, 129, 151, 139, 114, 115, 103, 71, 69, 70, 60, 35, 7, 1, 0, 0, 0, 0, 0, 0, 0, 0, 0, 0, 0, 0, 0, 0, 0, 0, 0, 0, 0, 0, 0, 0, 0, 0, 0, 0, 0, 0, 0, 0, 0, 0, 0, 0, 0, 0, 0, 0, 0, 0, 0, 0, 0, 0, 0, 0, 0, 0, 0, 0, 0, 0, 0, 0, 0, 0, 0, 0, 0
0, 0, 77, 5, 4, 6, 17, 26, 36, 58, 107, 105, 106, 167, 184, 198, 203, 177, 215, 243, 285, 228, 267, 230, 231, 255, 231, 218, 211, 205, 193, 208, 164, 171, 166, 144, 127, 142, 123, 114, 90, 89, 78, 61, 36, 24, 3, 0, 0, 0, 0, 0, 0, 0, 0, 0, 0, 0, 0, 0, 0, 0, 0, 0, 0, 0, 0, 0, 0, 0, 0, 0, 0, 0, 0, 0, 0, 0, 0, 0, 0, 0, 0, 0, 0, 0, 0, 0, 0, 0, 0, 0, 0, 0, 0, 0, 0, 0, 0, 0, 0, 0, 0, 0, 0, 0
