# TOPAS Version: 3.1.p3
# Parameter File: REDLEN_small_phantom_mc_basic_2cm.txt
# Results for scorer PhantomDose
# Scored on surface: CdTeCrystal1/YPlusSurface
# X in 100 bins of 0.03332 cm
# Y in 1 bin  of 0.4 cm
# Z in 100 bins of 0.0375 cm
# SurfaceTrackCount : Sum   
# Binned by incident track energy in 100 bins of 0.00104 MeV from 0.016 MeV to 0.12 MeV
# First bin is underflow, next to last bin is overflow, last bin is for case of no incident track.
0, 0, 0, 0, 0, 0, 0, 0, 0, 1, 1, 2, 0, 4, 0, 3, 2, 2, 4, 3, 3, 1, 0, 5, 0, 4, 1, 0, 1, 5, 2, 2, 5, 4, 0, 2, 1, 4, 0, 0, 0, 3, 0, 1, 0, 0, 0, 0, 0, 0, 0, 0, 0, 0, 0, 0, 0, 0, 0, 0, 0, 0, 0, 0, 0, 0, 0, 0, 0, 0, 0, 0, 0, 0, 0, 0, 0, 0, 0, 0, 0, 0, 0, 0, 0, 0, 0, 0, 0, 0, 0, 0, 0, 0, 0, 0, 0, 0, 0, 0, 0, 0, 0, 0, 0, 0
0, 0, 1, 0, 0, 0, 0, 0, 0, 0, 0, 1, 1, 1, 1, 1, 0, 2, 1, 4, 7, 2, 4, 2, 1, 2, 5, 0, 1, 3, 3, 2, 1, 2, 3, 1, 2, 0, 1, 1, 0, 0, 0, 0, 0, 0, 0, 0, 0, 0, 0, 0, 0, 0, 0, 0, 0, 0, 0, 0, 0, 0, 0, 0, 0, 0, 0, 0, 0, 0, 0, 0, 0, 0, 0, 0, 0, 0, 0, 0, 0, 0, 0, 0, 0, 0, 0, 0, 0, 0, 0, 0, 0, 0, 0, 0, 0, 0, 0, 0, 0, 0, 0, 0, 0, 0
0, 0, 2, 0, 0, 0, 0, 0, 0, 0, 0, 1, 0, 2, 1, 3, 3, 2, 1, 5, 1, 8, 2, 4, 6, 0, 4, 4, 1, 2, 5, 1, 1, 2, 3, 1, 0, 0, 0, 3, 0, 0, 1, 0, 0, 1, 0, 0, 0, 0, 0, 0, 0, 0, 0, 0, 0, 0, 0, 0, 0, 0, 0, 0, 0, 0, 0, 0, 0, 0, 0, 0, 0, 0, 0, 0, 0, 0, 0, 0, 0, 0, 0, 0, 0, 0, 0, 0, 0, 0, 0, 0, 0, 0, 0, 0, 0, 0, 0, 0, 0, 0, 0, 0, 0, 0
0, 0, 3, 2, 0, 0, 0, 0, 0, 1, 0, 1, 1, 0, 2, 2, 4, 2, 1, 4, 3, 2, 2, 2, 0, 3, 6, 4, 1, 4, 4, 4, 0, 1, 0, 1, 0, 2, 2, 1, 1, 0, 1, 0, 0, 0, 0, 0, 0, 0, 0, 0, 0, 0, 0, 0, 0, 0, 0, 0, 0, 0, 0, 0, 0, 0, 0, 0, 0, 0, 0, 0, 0, 0, 0, 0, 0, 0, 0, 0, 0, 0, 0, 0, 0, 0, 0, 0, 0, 0, 0, 0, 0, 0, 0, 0, 0, 0, 0, 0, 0, 0, 0, 0, 0, 0
0, 0, 4, 0, 0, 0, 0, 0, 0, 1, 2, 1, 3, 3, 1, 2, 3, 1, 1, 1, 4, 1, 4, 0, 1, 4, 5, 2, 0, 2, 1, 2, 0, 5, 1, 3, 1, 2, 1, 3, 3, 0, 0, 0, 1, 0, 0, 0, 0, 0, 0, 0, 0, 0, 0, 0, 0, 0, 0, 0, 0, 0, 0, 0, 0, 0, 0, 0, 0, 0, 0, 0, 0, 0, 0, 0, 0, 0, 0, 0, 0, 0, 0, 0, 0, 0, 0, 0, 0, 0, 0, 0, 0, 0, 0, 0, 0, 0, 0, 0, 0, 0, 0, 0, 0, 0
0, 0, 5, 0, 3, 4, 5, 15, 13, 34, 47, 36, 45, 62, 51, 95, 99, 90, 120, 124, 96, 97, 88, 95, 89, 80, 104, 95, 112, 76, 92, 95, 65, 70, 78, 78, 49, 58, 58, 49, 40, 32, 24, 19, 18, 9, 0, 0, 0, 0, 0, 0, 0, 0, 0, 0, 0, 0, 0, 0, 0, 0, 0, 0, 0, 0, 0, 0, 0, 0, 0, 0, 0, 0, 0, 0, 0, 0, 0, 0, 0, 0, 0, 0, 0, 0, 0, 0, 0, 0, 0, 0, 0, 0, 0, 0, 0, 0, 0, 0, 0, 0, 0, 0, 0, 0
0, 0, 6, 4, 4, 7, 17, 21, 46, 52, 102, 95, 123, 144, 151, 176, 197, 205, 217, 210, 246, 248, 248, 245, 231, 227, 237, 247, 225, 190, 186, 164, 198, 154, 148, 141, 115, 136, 124, 109, 74, 90, 59, 47, 49, 22, 1, 0, 0, 0, 0, 0, 0, 0, 0, 0, 0, 0, 0, 0, 0, 0, 0, 0, 0, 0, 0, 0, 0, 0, 0, 0, 0, 0, 0, 0, 0, 0, 0, 0, 0, 0, 0, 0, 0, 0, 0, 0, 0, 0, 0, 0, 0, 0, 0, 0, 0, 0, 0, 0, 0, 0, 0, 0, 0, 0
0, 0, 7, 1, 8, 10, 12, 15, 31, 62, 120, 93, 128, 188, 194, 200, 168, 221, 217, 282, 209, 264, 239, 235, 216, 242, 254, 201, 237, 205, 205, 222, 179, 180, 156, 139, 137, 123, 103, 94, 91, 77, 87, 61, 40, 34, 2, 0, 0, 0, 0, 0, 0, 0, 0, 0, 0, 0, 0, 0, 0, 0, 0, 0, 0, 0, 0, 0, 0, 0, 0, 0, 0, 0, 0, 0, 0, 0, 0, 0, 0, 0, 0, 0, 0, 0, 0, 0, 0, 0, 0, 0, 0, 0, 0, 0, 0, 0, 0, 0, 0, 0, 0, 0, 0, 0
0, 0, 8, 5, 2, 11, 14, 26, 41, 58, 111, 101, 122, 178, 176, 213, 203, 222, 253, 243, 250, 250, 264, 258, 236, 273, 228, 246, 213, 192, 193, 180, 181, 169, 141, 154, 138, 128, 120, 101, 99, 84, 69, 62, 42, 12, 1, 0, 0, 0, 0, 0, 0, 0, 0, 0, 0, 0, 0, 0, 0, 0, 0, 0, 0, 0, 0, 0, 0, 0, 0, 0, 0, 0, 0, 0, 0, 0, 0, 0, 0, 0, 0, 0, 0, 0, 0, 0, 0, 0, 0, 0, 0, 0, 0, 0, 0, 0, 0, 0, 0, 0, 0, 0, 0, 0
0, 0, 9, 4, 5, 13, 15, 40, 53, 45, 108, 99, 108, 143, 171, 178, 189, 225, 228, 276, 254, 284, 249, 243, 252, 265, 205, 235, 208, 207, 192, 189, 212, 158, 158, 136, 131, 137, 111, 112, 79, 83, 83, 63, 28, 23, 1, 0, 0, 0, 0, 0, 0, 0, 0, 0, 0, 0, 0, 0, 0, 0, 0, 0, 0, 0, 0, 0, 0, 0, 0, 0, 0, 0, 0, 0, 0, 0, 0, 0, 0, 0, 0, 0, 0, 0, 0, 0, 0, 0, 0, 0, 0, 0, 0, 0, 0, 0, 0, 0, 0, 0, 0, 0, 0, 0
0, 0, 10, 0, 4, 9, 13, 25, 49, 68, 103, 90, 112, 126, 203, 186, 195, 204, 202, 205, 273, 258, 231, 244, 236, 240, 232, 230, 175, 223, 193, 191, 178, 151, 153, 171, 138, 105, 95, 102, 104, 89, 69, 55, 37, 13, 0, 0, 0, 0, 0, 0, 0, 0, 0, 0, 0, 0, 0, 0, 0, 0, 0, 0, 0, 0, 0, 0, 0, 0, 0, 0, 0, 0, 0, 0, 0, 0, 0, 0, 0, 0, 0, 0, 0, 0, 0, 0, 0, 0, 0, 0, 0, 0, 0, 0, 0, 0, 0, 0, 0, 0, 0, 0, 0, 0
0, 0, 11, 2, 7, 8, 13, 21, 40, 52, 112, 93, 128, 110, 166, 182, 193, 231, 201, 239, 287, 259, 260, 246, 242, 240, 267, 216, 211, 215, 212, 203, 156, 173, 158, 154, 141, 122, 87, 93, 98, 87, 63, 53, 32, 18, 4, 0, 0, 0, 0, 0, 0, 0, 0, 0, 0, 0, 0, 0, 0, 0, 0, 0, 0, 0, 0, 0, 0, 0, 0, 0, 0, 0, 0, 0, 0, 0, 0, 0, 0, 0, 0, 0, 0, 0, 0, 0, 0, 0, 0, 0, 0, 0, 0, 0, 0, 0, 0, 0, 0, 0, 0, 0, 0, 0
0, 0, 12, 0, 3, 8, 14, 32, 41, 67, 118, 97, 109, 153, 173, 200, 199, 247, 229, 234, 255, 239, 230, 266, 237, 267, 257, 238, 197, 192, 190, 203, 187, 191, 146, 134, 120, 118, 114, 86, 98, 94, 77, 53, 43, 22, 0, 0, 0, 0, 0, 0, 0, 0, 0, 0, 0, 0, 0, 0, 0, 0, 0, 0, 0, 0, 0, 0, 0, 0, 0, 0, 0, 0, 0, 0, 0, 0, 0, 0, 0, 0, 0, 0, 0, 0, 0, 0, 0, 0, 0, 0, 0, 0, 0, 0, 0, 0, 0, 0, 0, 0, 0, 0, 0, 0
0, 0, 13, 0, 6, 5, 14, 27, 44, 62, 118, 97, 114, 140, 175, 178, 231, 247, 243, 229, 231, 243, 221, 230, 257, 248, 194, 253, 205, 224, 203, 196, 204, 164, 167, 150, 120, 107, 123, 115, 88, 81, 83, 65, 39, 25, 4, 0, 0, 0, 0, 0, 0, 0, 0, 0, 0, 0, 0, 0, 0, 0, 0, 0, 0, 0, 0, 0, 0, 0, 0, 0, 0, 0, 0, 0, 0, 0, 0, 0, 0, 0, 0, 0, 0, 0, 0, 0, 0, 0, 0, 0, 0, 0, 0, 0, 0, 0, 0, 0, 0, 0, 0, 0, 0, 0
0, 0, 14, 0, 4, 7, 19, 23, 41, 58, 120, 88, 127, 111, 179, 171, 185, 228, 204, 247, 260, 256, 249, 254, 224, 242, 227, 225, 236, 204, 192, 160, 165, 147, 164, 147, 125, 121, 110, 111, 81, 76, 66, 60, 52, 29, 0, 0, 0, 0, 0, 0, 0, 0, 0, 0, 0, 0, 0, 0, 0, 0, 0, 0, 0, 0, 0, 0, 0, 0, 0, 0, 0, 0, 0, 0, 0, 0, 0, 0, 0, 0, 0, 0, 0, 0, 0, 0, 0, 0, 0, 0, 0, 0, 0, 0, 0, 0, 0, 0, 0, 0, 0, 0, 0, 0
0, 0, 15, 1, 3, 3, 20, 25, 39, 55, 101, 107, 124, 132, 155, 199, 219, 244, 252, 259, 225, 230, 227, 256, 250, 214, 238, 213, 219, 192, 191, 173, 187, 167, 184, 141, 149, 139, 115, 94, 68, 91, 64, 59, 32, 19, 1, 0, 0, 0, 0, 0, 0, 0, 0, 0, 0, 0, 0, 0, 0, 0, 0, 0, 0, 0, 0, 0, 0, 0, 0, 0, 0, 0, 0, 0, 0, 0, 0, 0, 0, 0, 0, 0, 0, 0, 0, 0, 0, 0, 0, 0, 0, 0, 0, 0, 0, 0, 0, 0, 0, 0, 0, 0, 0, 0
0, 0, 16, 7, 7, 7, 17, 33, 39, 70, 112, 96, 116, 151, 133, 178, 227, 219, 219, 254, 232, 262, 245, 272, 250, 264, 245, 207, 218, 209, 211, 194, 172, 173, 172, 152, 125, 140, 94, 102, 77, 92, 72, 57, 43, 26, 0, 0, 0, 0, 0, 0, 0, 0, 0, 0, 0, 0, 0, 0, 0, 0, 0, 0, 0, 0, 0, 0, 0, 0, 0, 0, 0, 0, 0, 0, 0, 0, 0, 0, 0, 0, 0, 0, 0, 0, 0, 0, 0, 0, 0, 0, 0, 0, 0, 0, 0, 0, 0, 0, 0, 0, 0, 0, 0, 0
0, 0, 17, 5, 4, 13, 18, 17, 24, 51, 114, 127, 115, 157, 178, 199, 217, 194, 252, 277, 233, 243, 241, 233, 224, 270, 239, 244, 178, 201, 198, 187, 180, 169, 141, 151, 151, 124, 124, 87, 101, 83, 64, 59, 46, 23, 1, 0, 0, 0, 0, 0, 0, 0, 0, 0, 0, 0, 0, 0, 0, 0, 0, 0, 0, 0, 0, 0, 0, 0, 0, 0, 0, 0, 0, 0, 0, 0, 0, 0, 0, 0, 0, 0, 0, 0, 0, 0, 0, 0, 0, 0, 0, 0, 0, 0, 0, 0, 0, 0, 0, 0, 0, 0, 0, 0
0, 0, 18, 5, 5, 7, 13, 35, 37, 44, 112, 93, 115, 131, 178, 189, 170, 247, 237, 254, 235, 251, 255, 273, 251, 241, 233, 243, 223, 214, 204, 185, 171, 185, 144, 127, 131, 141, 106, 99, 96, 75, 52, 63, 38, 17, 2, 0, 0, 0, 0, 0, 0, 0, 0, 0, 0, 0, 0, 0, 0, 0, 0, 0, 0, 0, 0, 0, 0, 0, 0, 0, 0, 0, 0, 0, 0, 0, 0, 0, 0, 0, 0, 0, 0, 0, 0, 0, 0, 0, 0, 0, 0, 0, 0, 0, 0, 0, 0, 0, 0, 0, 0, 0, 0, 0
0, 0, 19, 5, 4, 9, 27, 21, 33, 53, 107, 85, 129, 149, 206, 183, 213, 216, 232, 273, 237, 243, 261, 255, 244, 262, 248, 222, 212, 209, 196, 174, 208, 158, 168, 105, 151, 139, 111, 99, 98, 83, 61, 63, 49, 25, 4, 0, 0, 0, 0, 0, 0, 0, 0, 0, 0, 0, 0, 0, 0, 0, 0, 0, 0, 0, 0, 0, 0, 0, 0, 0, 0, 0, 0, 0, 0, 0, 0, 0, 0, 0, 0, 0, 0, 0, 0, 0, 0, 0, 0, 0, 0, 0, 0, 0, 0, 0, 0, 0, 0, 0, 0, 0, 0, 0
0, 0, 20, 4, 2, 10, 11, 24, 52, 66, 112, 113, 110, 147, 162, 202, 206, 218, 255, 210, 252, 260, 253, 263, 218, 239, 237, 190, 214, 207, 177, 198, 185, 173, 178, 157, 158, 142, 128, 84, 90, 77, 59, 50, 52, 25, 1, 0, 0, 0, 0, 0, 0, 0, 0, 0, 0, 0, 0, 0, 0, 0, 0, 0, 0, 0, 0, 0, 0, 0, 0, 0, 0, 0, 0, 0, 0, 0, 0, 0, 0, 0, 0, 0, 0, 0, 0, 0, 0, 0, 0, 0, 0, 0, 0, 0, 0, 0, 0, 0, 0, 0, 0, 0, 0, 0
0, 0, 21, 13, 4, 12, 10, 28, 41, 57, 125, 111, 119, 143, 167, 193, 211, 211, 231, 243, 251, 277, 229, 242, 257, 191, 230, 223, 206, 202, 195, 180, 172, 170, 178, 137, 155, 122, 122, 113, 109, 79, 64, 62, 36, 22, 0, 0, 0, 0, 0, 0, 0, 0, 0, 0, 0, 0, 0, 0, 0, 0, 0, 0, 0, 0, 0, 0, 0, 0, 0, 0, 0, 0, 0, 0, 0, 0, 0, 0, 0, 0, 0, 0, 0, 0, 0, 0, 0, 0, 0, 0, 0, 0, 0, 0, 0, 0, 0, 0, 0, 0, 0, 0, 0, 0
0, 0, 22, 14, 3, 8, 14, 33, 41, 58, 131, 91, 111, 130, 178, 212, 231, 211, 232, 258, 261, 245, 227, 246, 257, 254, 237, 231, 235, 211, 213, 202, 172, 173, 151, 142, 132, 111, 117, 107, 103, 60, 58, 55, 37, 27, 2, 0, 0, 0, 0, 0, 0, 0, 0, 0, 0, 0, 0, 0, 0, 0, 0, 0, 0, 0, 0, 0, 0, 0, 0, 0, 0, 0, 0, 0, 0, 0, 0, 0, 0, 0, 0, 0, 0, 0, 0, 0, 0, 0, 0, 0, 0, 0, 0, 0, 0, 0, 0, 0, 0, 0, 0, 0, 0, 0
0, 0, 23, 1, 6, 9, 12, 29, 51, 52, 122, 98, 107, 126, 166, 179, 198, 209, 219, 244, 238, 237, 257, 253, 266, 245, 239, 212, 234, 189, 194, 203, 165, 189, 161, 152, 120, 136, 107, 119, 108, 91, 71, 66, 32, 21, 1, 0, 0, 0, 0, 0, 0, 0, 0, 0, 0, 0, 0, 0, 0, 0, 0, 0, 0, 0, 0, 0, 0, 0, 0, 0, 0, 0, 0, 0, 0, 0, 0, 0, 0, 0, 0, 0, 0, 0, 0, 0, 0, 0, 0, 0, 0, 0, 0, 0, 0, 0, 0, 0, 0, 0, 0, 0, 0, 0
0, 0, 24, 5, 3, 9, 13, 29, 39, 61, 99, 92, 98, 146, 160, 210, 242, 217, 224, 247, 240, 234, 248, 264, 250, 223, 260, 210, 237, 218, 200, 198, 172, 151, 164, 142, 128, 127, 99, 99, 94, 90, 93, 56, 39, 24, 1, 0, 0, 0, 0, 0, 0, 0, 0, 0, 0, 0, 0, 0, 0, 0, 0, 0, 0, 0, 0, 0, 0, 0, 0, 0, 0, 0, 0, 0, 0, 0, 0, 0, 0, 0, 0, 0, 0, 0, 0, 0, 0, 0, 0, 0, 0, 0, 0, 0, 0, 0, 0, 0, 0, 0, 0, 0, 0, 0
0, 0, 25, 0, 3, 4, 12, 21, 43, 62, 108, 98, 100, 156, 154, 208, 236, 207, 254, 278, 262, 253, 237, 245, 226, 248, 203, 220, 203, 191, 172, 175, 162, 168, 157, 138, 156, 129, 100, 102, 80, 75, 60, 46, 54, 29, 0, 0, 0, 0, 0, 0, 0, 0, 0, 0, 0, 0, 0, 0, 0, 0, 0, 0, 0, 0, 0, 0, 0, 0, 0, 0, 0, 0, 0, 0, 0, 0, 0, 0, 0, 0, 0, 0, 0, 0, 0, 0, 0, 0, 0, 0, 0, 0, 0, 0, 0, 0, 0, 0, 0, 0, 0, 0, 0, 0
0, 0, 26, 2, 1, 9, 21, 35, 38, 63, 124, 80, 94, 131, 162, 181, 189, 176, 260, 252, 225, 245, 232, 240, 240, 240, 250, 231, 216, 221, 226, 215, 189, 151, 164, 143, 152, 98, 123, 97, 98, 77, 74, 56, 41, 23, 3, 0, 0, 0, 0, 0, 0, 0, 0, 0, 0, 0, 0, 0, 0, 0, 0, 0, 0, 0, 0, 0, 0, 0, 0, 0, 0, 0, 0, 0, 0, 0, 0, 0, 0, 0, 0, 0, 0, 0, 0, 0, 0, 0, 0, 0, 0, 0, 0, 0, 0, 0, 0, 0, 0, 0, 0, 0, 0, 0
0, 0, 27, 3, 3, 6, 13, 25, 42, 68, 112, 90, 118, 169, 157, 179, 209, 221, 259, 222, 241, 249, 252, 269, 254, 239, 223, 234, 198, 215, 206, 184, 167, 177, 161, 130, 133, 142, 117, 86, 100, 77, 76, 69, 48, 33, 0, 0, 0, 0, 0, 0, 0, 0, 0, 0, 0, 0, 0, 0, 0, 0, 0, 0, 0, 0, 0, 0, 0, 0, 0, 0, 0, 0, 0, 0, 0, 0, 0, 0, 0, 0, 0, 0, 0, 0, 0, 0, 0, 0, 0, 0, 0, 0, 0, 0, 0, 0, 0, 0, 0, 0, 0, 0, 0, 0
0, 0, 28, 1, 1, 4, 14, 29, 47, 51, 120, 97, 116, 139, 187, 209, 214, 188, 248, 212, 253, 283, 272, 263, 222, 264, 224, 252, 218, 228, 202, 196, 167, 168, 167, 137, 150, 131, 112, 106, 100, 78, 69, 51, 48, 10, 0, 0, 0, 0, 0, 0, 0, 0, 0, 0, 0, 0, 0, 0, 0, 0, 0, 0, 0, 0, 0, 0, 0, 0, 0, 0, 0, 0, 0, 0, 0, 0, 0, 0, 0, 0, 0, 0, 0, 0, 0, 0, 0, 0, 0, 0, 0, 0, 0, 0, 0, 0, 0, 0, 0, 0, 0, 0, 0, 0
0, 0, 29, 2, 3, 3, 11, 32, 31, 57, 100, 76, 120, 137, 163, 201, 212, 206, 212, 215, 242, 275, 232, 258, 233, 246, 230, 273, 219, 184, 201, 177, 170, 156, 136, 125, 129, 113, 116, 96, 89, 103, 55, 51, 41, 15, 0, 0, 0, 0, 0, 0, 0, 0, 0, 0, 0, 0, 0, 0, 0, 0, 0, 0, 0, 0, 0, 0, 0, 0, 0, 0, 0, 0, 0, 0, 0, 0, 0, 0, 0, 0, 0, 0, 0, 0, 0, 0, 0, 0, 0, 0, 0, 0, 0, 0, 0, 0, 0, 0, 0, 0, 0, 0, 0, 0
0, 0, 30, 4, 4, 10, 15, 33, 32, 57, 94, 82, 116, 141, 173, 201, 203, 210, 232, 267, 230, 219, 284, 284, 274, 206, 237, 201, 202, 197, 192, 198, 153, 176, 182, 158, 127, 127, 108, 90, 97, 89, 59, 49, 26, 22, 1, 0, 0, 0, 0, 0, 0, 0, 0, 0, 0, 0, 0, 0, 0, 0, 0, 0, 0, 0, 0, 0, 0, 0, 0, 0, 0, 0, 0, 0, 0, 0, 0, 0, 0, 0, 0, 0, 0, 0, 0, 0, 0, 0, 0, 0, 0, 0, 0, 0, 0, 0, 0, 0, 0, 0, 0, 0, 0, 0
0, 0, 31, 9, 2, 6, 16, 27, 33, 49, 128, 75, 125, 124, 192, 202, 178, 207, 229, 258, 265, 243, 239, 224, 271, 251, 214, 204, 194, 219, 191, 196, 193, 180, 169, 150, 146, 132, 124, 123, 91, 89, 76, 55, 35, 24, 2, 0, 0, 0, 0, 0, 0, 0, 0, 0, 0, 0, 0, 0, 0, 0, 0, 0, 0, 0, 0, 0, 0, 0, 0, 0, 0, 0, 0, 0, 0, 0, 0, 0, 0, 0, 0, 0, 0, 0, 0, 0, 0, 0, 0, 0, 0, 0, 0, 0, 0, 0, 0, 0, 0, 0, 0, 0, 0, 0
0, 0, 32, 3, 5, 11, 14, 24, 35, 43, 126, 92, 106, 163, 165, 205, 197, 183, 231, 234, 237, 272, 262, 244, 259, 224, 257, 197, 237, 203, 184, 172, 189, 163, 197, 157, 158, 131, 126, 101, 85, 77, 62, 49, 29, 22, 0, 0, 0, 0, 0, 0, 0, 0, 0, 0, 0, 0, 0, 0, 0, 0, 0, 0, 0, 0, 0, 0, 0, 0, 0, 0, 0, 0, 0, 0, 0, 0, 0, 0, 0, 0, 0, 0, 0, 0, 0, 0, 0, 0, 0, 0, 0, 0, 0, 0, 0, 0, 0, 0, 0, 0, 0, 0, 0, 0
0, 0, 33, 3, 4, 7, 18, 27, 36, 56, 134, 79, 104, 136, 174, 193, 196, 227, 213, 263, 258, 259, 265, 228, 233, 235, 221, 212, 189, 215, 208, 167, 198, 167, 154, 143, 125, 123, 125, 119, 89, 81, 64, 55, 35, 17, 2, 0, 0, 0, 0, 0, 0, 0, 0, 0, 0, 0, 0, 0, 0, 0, 0, 0, 0, 0, 0, 0, 0, 0, 0, 0, 0, 0, 0, 0, 0, 0, 0, 0, 0, 0, 0, 0, 0, 0, 0, 0, 0, 0, 0, 0, 0, 0, 0, 0, 0, 0, 0, 0, 0, 0, 0, 0, 0, 0
0, 0, 34, 1, 5, 5, 11, 26, 39, 52, 117, 121, 120, 146, 168, 204, 197, 239, 258, 276, 219, 267, 247, 243, 296, 245, 234, 242, 234, 196, 190, 181, 203, 154, 161, 163, 146, 121, 102, 114, 92, 68, 63, 56, 44, 19, 0, 0, 0, 0, 0, 0, 0, 0, 0, 0, 0, 0, 0, 0, 0, 0, 0, 0, 0, 0, 0, 0, 0, 0, 0, 0, 0, 0, 0, 0, 0, 0, 0, 0, 0, 0, 0, 0, 0, 0, 0, 0, 0, 0, 0, 0, 0, 0, 0, 0, 0, 0, 0, 0, 0, 0, 0, 0, 0, 0
0, 0, 35, 0, 0, 12, 14, 26, 29, 56, 129, 82, 118, 158, 172, 224, 219, 215, 234, 274, 256, 251, 260, 229, 223, 211, 204, 251, 215, 207, 190, 194, 203, 171, 163, 146, 154, 136, 115, 105, 79, 93, 63, 40, 36, 13, 0, 0, 0, 0, 0, 0, 0, 0, 0, 0, 0, 0, 0, 0, 0, 0, 0, 0, 0, 0, 0, 0, 0, 0, 0, 0, 0, 0, 0, 0, 0, 0, 0, 0, 0, 0, 0, 0, 0, 0, 0, 0, 0, 0, 0, 0, 0, 0, 0, 0, 0, 0, 0, 0, 0, 0, 0, 0, 0, 0
0, 0, 36, 0, 2, 5, 9, 33, 40, 61, 114, 86, 101, 147, 155, 217, 205, 200, 265, 227, 261, 225, 241, 262, 240, 219, 246, 228, 178, 184, 184, 190, 179, 173, 152, 151, 157, 118, 108, 105, 102, 66, 75, 57, 33, 19, 2, 0, 0, 0, 0, 0, 0, 0, 0, 0, 0, 0, 0, 0, 0, 0, 0, 0, 0, 0, 0, 0, 0, 0, 0, 0, 0, 0, 0, 0, 0, 0, 0, 0, 0, 0, 0, 0, 0, 0, 0, 0, 0, 0, 0, 0, 0, 0, 0, 0, 0, 0, 0, 0, 0, 0, 0, 0, 0, 0
0, 0, 37, 3, 2, 9, 12, 44, 38, 53, 115, 101, 117, 145, 156, 193, 195, 184, 221, 231, 251, 234, 250, 236, 263, 221, 238, 227, 231, 185, 197, 197, 182, 168, 143, 147, 160, 118, 122, 107, 97, 86, 51, 55, 34, 24, 0, 0, 0, 0, 0, 0, 0, 0, 0, 0, 0, 0, 0, 0, 0, 0, 0, 0, 0, 0, 0, 0, 0, 0, 0, 0, 0, 0, 0, 0, 0, 0, 0, 0, 0, 0, 0, 0, 0, 0, 0, 0, 0, 0, 0, 0, 0, 0, 0, 0, 0, 0, 0, 0, 0, 0, 0, 0, 0, 0
0, 0, 38, 0, 5, 9, 19, 23, 39, 55, 124, 94, 139, 133, 174, 203, 162, 240, 241, 258, 230, 243, 224, 265, 241, 271, 245, 225, 206, 212, 224, 208, 195, 170, 150, 164, 127, 123, 115, 114, 123, 98, 65, 59, 38, 24, 0, 0, 0, 0, 0, 0, 0, 0, 0, 0, 0, 0, 0, 0, 0, 0, 0, 0, 0, 0, 0, 0, 0, 0, 0, 0, 0, 0, 0, 0, 0, 0, 0, 0, 0, 0, 0, 0, 0, 0, 0, 0, 0, 0, 0, 0, 0, 0, 0, 0, 0, 0, 0, 0, 0, 0, 0, 0, 0, 0
0, 0, 39, 2, 2, 8, 14, 20, 24, 59, 113, 106, 108, 147, 171, 199, 188, 230, 216, 248, 256, 251, 263, 312, 249, 231, 223, 223, 222, 213, 215, 189, 175, 167, 154, 144, 142, 116, 110, 119, 102, 74, 69, 66, 28, 23, 1, 0, 0, 0, 0, 0, 0, 0, 0, 0, 0, 0, 0, 0, 0, 0, 0, 0, 0, 0, 0, 0, 0, 0, 0, 0, 0, 0, 0, 0, 0, 0, 0, 0, 0, 0, 0, 0, 0, 0, 0, 0, 0, 0, 0, 0, 0, 0, 0, 0, 0, 0, 0, 0, 0, 0, 0, 0, 0, 0
0, 0, 40, 2, 4, 6, 15, 22, 44, 59, 122, 98, 124, 152, 193, 220, 226, 231, 215, 276, 262, 240, 261, 235, 228, 245, 239, 209, 224, 203, 215, 202, 193, 165, 176, 144, 155, 119, 107, 102, 106, 102, 84, 64, 41, 19, 0, 0, 0, 0, 0, 0, 0, 0, 0, 0, 0, 0, 0, 0, 0, 0, 0, 0, 0, 0, 0, 0, 0, 0, 0, 0, 0, 0, 0, 0, 0, 0, 0, 0, 0, 0, 0, 0, 0, 0, 0, 0, 0, 0, 0, 0, 0, 0, 0, 0, 0, 0, 0, 0, 0, 0, 0, 0, 0, 0
0, 0, 41, 0, 3, 11, 17, 21, 41, 52, 100, 80, 100, 149, 147, 186, 187, 215, 222, 226, 222, 227, 249, 249, 232, 243, 231, 192, 212, 203, 224, 174, 189, 164, 165, 140, 104, 137, 93, 130, 89, 65, 66, 56, 18, 19, 3, 0, 0, 0, 0, 0, 0, 0, 0, 0, 0, 0, 0, 0, 0, 0, 0, 0, 0, 0, 0, 0, 0, 0, 0, 0, 0, 0, 0, 0, 0, 0, 0, 0, 0, 0, 0, 0, 0, 0, 0, 0, 0, 0, 0, 0, 0, 0, 0, 0, 0, 0, 0, 0, 0, 0, 0, 0, 0, 0
0, 0, 42, 0, 1, 5, 15, 21, 32, 37, 77, 70, 97, 127, 137, 138, 137, 151, 186, 175, 185, 183, 216, 199, 204, 182, 202, 209, 180, 171, 153, 176, 144, 134, 112, 120, 119, 111, 91, 112, 73, 63, 64, 55, 32, 13, 2, 0, 0, 0, 0, 0, 0, 0, 0, 0, 0, 0, 0, 0, 0, 0, 0, 0, 0, 0, 0, 0, 0, 0, 0, 0, 0, 0, 0, 0, 0, 0, 0, 0, 0, 0, 0, 0, 0, 0, 0, 0, 0, 0, 0, 0, 0, 0, 0, 0, 0, 0, 0, 0, 0, 0, 0, 0, 0, 0
0, 0, 43, 5, 1, 4, 9, 10, 25, 32, 75, 56, 78, 85, 83, 126, 129, 133, 122, 150, 173, 192, 185, 152, 143, 163, 164, 149, 161, 167, 135, 141, 128, 113, 136, 110, 91, 106, 71, 87, 61, 51, 46, 38, 27, 13, 1, 0, 0, 0, 0, 0, 0, 0, 0, 0, 0, 0, 0, 0, 0, 0, 0, 0, 0, 0, 0, 0, 0, 0, 0, 0, 0, 0, 0, 0, 0, 0, 0, 0, 0, 0, 0, 0, 0, 0, 0, 0, 0, 0, 0, 0, 0, 0, 0, 0, 0, 0, 0, 0, 0, 0, 0, 0, 0, 0
0, 0, 44, 4, 1, 5, 3, 15, 15, 27, 59, 43, 62, 75, 93, 99, 117, 105, 141, 115, 169, 145, 145, 154, 165, 142, 137, 152, 124, 122, 135, 133, 102, 117, 105, 105, 67, 83, 79, 59, 50, 45, 52, 46, 18, 14, 0, 0, 0, 0, 0, 0, 0, 0, 0, 0, 0, 0, 0, 0, 0, 0, 0, 0, 0, 0, 0, 0, 0, 0, 0, 0, 0, 0, 0, 0, 0, 0, 0, 0, 0, 0, 0, 0, 0, 0, 0, 0, 0, 0, 0, 0, 0, 0, 0, 0, 0, 0, 0, 0, 0, 0, 0, 0, 0, 0
0, 0, 45, 5, 1, 4, 4, 3, 13, 12, 45, 32, 35, 57, 73, 81, 81, 106, 106, 113, 135, 99, 141, 132, 116, 110, 124, 96, 122, 105, 106, 112, 93, 103, 85, 76, 61, 72, 65, 56, 55, 50, 38, 27, 24, 10, 1, 0, 0, 0, 0, 0, 0, 0, 0, 0, 0, 0, 0, 0, 0, 0, 0, 0, 0, 0, 0, 0, 0, 0, 0, 0, 0, 0, 0, 0, 0, 0, 0, 0, 0, 0, 0, 0, 0, 0, 0, 0, 0, 0, 0, 0, 0, 0, 0, 0, 0, 0, 0, 0, 0, 0, 0, 0, 0, 0
0, 0, 46, 0, 0, 1, 5, 6, 11, 7, 40, 26, 30, 45, 69, 71, 72, 81, 92, 93, 99, 96, 116, 108, 90, 85, 95, 101, 95, 98, 97, 78, 84, 92, 78, 77, 78, 78, 65, 50, 34, 38, 30, 32, 23, 12, 0, 0, 0, 0, 0, 0, 0, 0, 0, 0, 0, 0, 0, 0, 0, 0, 0, 0, 0, 0, 0, 0, 0, 0, 0, 0, 0, 0, 0, 0, 0, 0, 0, 0, 0, 0, 0, 0, 0, 0, 0, 0, 0, 0, 0, 0, 0, 0, 0, 0, 0, 0, 0, 0, 0, 0, 0, 0, 0, 0
0, 0, 47, 1, 1, 0, 1, 2, 9, 10, 32, 16, 25, 37, 38, 50, 49, 75, 83, 62, 94, 85, 87, 96, 99, 78, 136, 98, 80, 89, 90, 70, 91, 68, 80, 56, 54, 47, 49, 56, 44, 49, 29, 29, 31, 14, 1, 0, 0, 0, 0, 0, 0, 0, 0, 0, 0, 0, 0, 0, 0, 0, 0, 0, 0, 0, 0, 0, 0, 0, 0, 0, 0, 0, 0, 0, 0, 0, 0, 0, 0, 0, 0, 0, 0, 0, 0, 0, 0, 0, 0, 0, 0, 0, 0, 0, 0, 0, 0, 0, 0, 0, 0, 0, 0, 0
0, 0, 48, 3, 1, 1, 2, 2, 4, 10, 24, 18, 20, 26, 32, 48, 46, 45, 53, 84, 75, 84, 76, 79, 78, 102, 77, 94, 79, 77, 85, 73, 77, 53, 51, 57, 71, 54, 61, 48, 39, 45, 30, 25, 23, 6, 0, 0, 0, 0, 0, 0, 0, 0, 0, 0, 0, 0, 0, 0, 0, 0, 0, 0, 0, 0, 0, 0, 0, 0, 0, 0, 0, 0, 0, 0, 0, 0, 0, 0, 0, 0, 0, 0, 0, 0, 0, 0, 0, 0, 0, 0, 0, 0, 0, 0, 0, 0, 0, 0, 0, 0, 0, 0, 0, 0
0, 0, 49, 2, 0, 0, 0, 1, 1, 2, 21, 11, 19, 30, 35, 39, 30, 45, 56, 75, 65, 76, 82, 90, 80, 93, 98, 75, 89, 90, 75, 82, 60, 61, 85, 59, 65, 47, 51, 51, 31, 45, 22, 26, 19, 7, 0, 0, 0, 0, 0, 0, 0, 0, 0, 0, 0, 0, 0, 0, 0, 0, 0, 0, 0, 0, 0, 0, 0, 0, 0, 0, 0, 0, 0, 0, 0, 0, 0, 0, 0, 0, 0, 0, 0, 0, 0, 0, 0, 0, 0, 0, 0, 0, 0, 0, 0, 0, 0, 0, 0, 0, 0, 0, 0, 0
0, 0, 50, 0, 0, 0, 1, 2, 1, 5, 25, 6, 14, 26, 27, 34, 46, 67, 56, 64, 73, 74, 88, 70, 84, 73, 98, 87, 82, 88, 91, 71, 86, 77, 53, 45, 56, 51, 27, 45, 50, 31, 28, 23, 23, 4, 0, 0, 0, 0, 0, 0, 0, 0, 0, 0, 0, 0, 0, 0, 0, 0, 0, 0, 0, 0, 0, 0, 0, 0, 0, 0, 0, 0, 0, 0, 0, 0, 0, 0, 0, 0, 0, 0, 0, 0, 0, 0, 0, 0, 0, 0, 0, 0, 0, 0, 0, 0, 0, 0, 0, 0, 0, 0, 0, 0
0, 0, 51, 0, 0, 0, 0, 3, 4, 6, 16, 8, 19, 30, 27, 52, 57, 48, 51, 77, 76, 65, 72, 69, 69, 108, 68, 73, 82, 73, 71, 80, 79, 68, 54, 59, 50, 56, 40, 54, 47, 31, 29, 15, 13, 5, 0, 0, 0, 0, 0, 0, 0, 0, 0, 0, 0, 0, 0, 0, 0, 0, 0, 0, 0, 0, 0, 0, 0, 0, 0, 0, 0, 0, 0, 0, 0, 0, 0, 0, 0, 0, 0, 0, 0, 0, 0, 0, 0, 0, 0, 0, 0, 0, 0, 0, 0, 0, 0, 0, 0, 0, 0, 0, 0, 0
0, 0, 52, 0, 0, 1, 0, 1, 5, 10, 33, 17, 30, 39, 38, 51, 57, 76, 108, 86, 85, 95, 85, 84, 71, 94, 64, 86, 88, 79, 104, 72, 83, 70, 58, 55, 54, 65, 44, 51, 42, 33, 28, 26, 21, 16, 0, 0, 0, 0, 0, 0, 0, 0, 0, 0, 0, 0, 0, 0, 0, 0, 0, 0, 0, 0, 0, 0, 0, 0, 0, 0, 0, 0, 0, 0, 0, 0, 0, 0, 0, 0, 0, 0, 0, 0, 0, 0, 0, 0, 0, 0, 0, 0, 0, 0, 0, 0, 0, 0, 0, 0, 0, 0, 0, 0
0, 0, 53, 0, 0, 0, 2, 2, 14, 17, 35, 26, 30, 42, 51, 75, 64, 91, 89, 92, 91, 107, 88, 110, 101, 89, 101, 98, 104, 90, 89, 94, 85, 85, 79, 79, 78, 66, 69, 49, 48, 49, 40, 26, 16, 6, 2, 0, 0, 0, 0, 0, 0, 0, 0, 0, 0, 0, 0, 0, 0, 0, 0, 0, 0, 0, 0, 0, 0, 0, 0, 0, 0, 0, 0, 0, 0, 0, 0, 0, 0, 0, 0, 0, 0, 0, 0, 0, 0, 0, 0, 0, 0, 0, 0, 0, 0, 0, 0, 0, 0, 0, 0, 0, 0, 0
0, 0, 54, 1, 0, 5, 5, 9, 8, 13, 36, 38, 40, 44, 73, 88, 88, 84, 109, 112, 113, 120, 128, 104, 109, 133, 135, 132, 110, 96, 101, 110, 88, 89, 94, 79, 77, 78, 68, 57, 56, 39, 46, 25, 23, 11, 0, 0, 0, 0, 0, 0, 0, 0, 0, 0, 0, 0, 0, 0, 0, 0, 0, 0, 0, 0, 0, 0, 0, 0, 0, 0, 0, 0, 0, 0, 0, 0, 0, 0, 0, 0, 0, 0, 0, 0, 0, 0, 0, 0, 0, 0, 0, 0, 0, 0, 0, 0, 0, 0, 0, 0, 0, 0, 0, 0
0, 0, 55, 0, 2, 7, 5, 11, 10, 17, 47, 57, 50, 50, 81, 100, 119, 123, 119, 147, 135, 157, 140, 127, 153, 165, 140, 137, 138, 113, 141, 107, 131, 99, 104, 97, 66, 79, 98, 72, 52, 51, 58, 26, 24, 19, 2, 0, 0, 0, 0, 0, 0, 0, 0, 0, 0, 0, 0, 0, 0, 0, 0, 0, 0, 0, 0, 0, 0, 0, 0, 0, 0, 0, 0, 0, 0, 0, 0, 0, 0, 0, 0, 0, 0, 0, 0, 0, 0, 0, 0, 0, 0, 0, 0, 0, 0, 0, 0, 0, 0, 0, 0, 0, 0, 0
0, 0, 56, 1, 1, 1, 10, 14, 20, 30, 74, 45, 61, 92, 100, 106, 129, 143, 146, 154, 180, 159, 192, 159, 136, 164, 150, 170, 153, 182, 153, 140, 133, 111, 99, 105, 95, 101, 80, 81, 72, 60, 42, 39, 31, 19, 3, 0, 0, 0, 0, 0, 0, 0, 0, 0, 0, 0, 0, 0, 0, 0, 0, 0, 0, 0, 0, 0, 0, 0, 0, 0, 0, 0, 0, 0, 0, 0, 0, 0, 0, 0, 0, 0, 0, 0, 0, 0, 0, 0, 0, 0, 0, 0, 0, 0, 0, 0, 0, 0, 0, 0, 0, 0, 0, 0
0, 0, 57, 0, 2, 11, 7, 24, 24, 33, 83, 85, 88, 116, 142, 162, 140, 158, 181, 197, 211, 187, 208, 216, 177, 167, 179, 197, 177, 183, 179, 156, 127, 145, 122, 119, 118, 100, 100, 95, 79, 70, 62, 46, 27, 14, 2, 0, 0, 0, 0, 0, 0, 0, 0, 0, 0, 0, 0, 0, 0, 0, 0, 0, 0, 0, 0, 0, 0, 0, 0, 0, 0, 0, 0, 0, 0, 0, 0, 0, 0, 0, 0, 0, 0, 0, 0, 0, 0, 0, 0, 0, 0, 0, 0, 0, 0, 0, 0, 0, 0, 0, 0, 0, 0, 0
0, 0, 58, 3, 3, 10, 16, 21, 36, 56, 84, 97, 120, 144, 157, 187, 203, 184, 229, 240, 221, 213, 231, 258, 229, 228, 206, 220, 205, 204, 189, 160, 151, 153, 150, 143, 132, 129, 106, 120, 80, 69, 64, 56, 43, 15, 2, 0, 0, 0, 0, 0, 0, 0, 0, 0, 0, 0, 0, 0, 0, 0, 0, 0, 0, 0, 0, 0, 0, 0, 0, 0, 0, 0, 0, 0, 0, 0, 0, 0, 0, 0, 0, 0, 0, 0, 0, 0, 0, 0, 0, 0, 0, 0, 0, 0, 0, 0, 0, 0, 0, 0, 0, 0, 0, 0
0, 0, 59, 3, 5, 4, 12, 21, 39, 55, 125, 95, 130, 136, 165, 175, 201, 214, 246, 226, 236, 257, 242, 247, 268, 231, 250, 253, 227, 234, 201, 186, 168, 173, 179, 154, 137, 125, 106, 105, 94, 76, 66, 48, 29, 25, 1, 0, 0, 0, 0, 0, 0, 0, 0, 0, 0, 0, 0, 0, 0, 0, 0, 0, 0, 0, 0, 0, 0, 0, 0, 0, 0, 0, 0, 0, 0, 0, 0, 0, 0, 0, 0, 0, 0, 0, 0, 0, 0, 0, 0, 0, 0, 0, 0, 0, 0, 0, 0, 0, 0, 0, 0, 0, 0, 0
0, 0, 60, 3, 3, 9, 11, 29, 25, 61, 117, 92, 108, 148, 184, 201, 188, 204, 238, 234, 230, 276, 242, 265, 274, 250, 244, 215, 227, 217, 174, 209, 181, 177, 152, 135, 157, 106, 123, 105, 87, 82, 61, 60, 41, 22, 0, 0, 0, 0, 0, 0, 0, 0, 0, 0, 0, 0, 0, 0, 0, 0, 0, 0, 0, 0, 0, 0, 0, 0, 0, 0, 0, 0, 0, 0, 0, 0, 0, 0, 0, 0, 0, 0, 0, 0, 0, 0, 0, 0, 0, 0, 0, 0, 0, 0, 0, 0, 0, 0, 0, 0, 0, 0, 0, 0
0, 0, 61, 1, 4, 6, 9, 24, 38, 55, 111, 91, 112, 150, 164, 192, 196, 193, 234, 256, 248, 226, 249, 251, 217, 269, 244, 251, 216, 210, 171, 187, 182, 177, 167, 154, 150, 131, 121, 106, 90, 89, 59, 56, 45, 15, 2, 0, 0, 0, 0, 0, 0, 0, 0, 0, 0, 0, 0, 0, 0, 0, 0, 0, 0, 0, 0, 0, 0, 0, 0, 0, 0, 0, 0, 0, 0, 0, 0, 0, 0, 0, 0, 0, 0, 0, 0, 0, 0, 0, 0, 0, 0, 0, 0, 0, 0, 0, 0, 0, 0, 0, 0, 0, 0, 0
0, 0, 62, 1, 2, 3, 13, 28, 32, 57, 99, 89, 118, 144, 168, 207, 192, 198, 221, 247, 245, 246, 241, 246, 229, 241, 228, 218, 217, 227, 206, 204, 166, 171, 189, 157, 129, 128, 111, 102, 97, 71, 73, 66, 45, 22, 1, 0, 0, 0, 0, 0, 0, 0, 0, 0, 0, 0, 0, 0, 0, 0, 0, 0, 0, 0, 0, 0, 0, 0, 0, 0, 0, 0, 0, 0, 0, 0, 0, 0, 0, 0, 0, 0, 0, 0, 0, 0, 0, 0, 0, 0, 0, 0, 0, 0, 0, 0, 0, 0, 0, 0, 0, 0, 0, 0
0, 0, 63, 2, 3, 4, 18, 25, 43, 52, 136, 108, 118, 151, 167, 188, 201, 210, 224, 265, 249, 256, 247, 239, 265, 228, 247, 214, 230, 197, 211, 179, 167, 174, 173, 148, 139, 138, 116, 106, 96, 80, 71, 46, 52, 22, 1, 0, 0, 0, 0, 0, 0, 0, 0, 0, 0, 0, 0, 0, 0, 0, 0, 0, 0, 0, 0, 0, 0, 0, 0, 0, 0, 0, 0, 0, 0, 0, 0, 0, 0, 0, 0, 0, 0, 0, 0, 0, 0, 0, 0, 0, 0, 0, 0, 0, 0, 0, 0, 0, 0, 0, 0, 0, 0, 0
0, 0, 64, 1, 4, 5, 11, 27, 35, 49, 127, 95, 102, 163, 179, 183, 198, 200, 234, 221, 252, 266, 254, 236, 277, 220, 213, 234, 233, 224, 178, 215, 178, 172, 151, 154, 138, 132, 107, 100, 107, 69, 60, 49, 54, 10, 2, 0, 0, 0, 0, 0, 0, 0, 0, 0, 0, 0, 0, 0, 0, 0, 0, 0, 0, 0, 0, 0, 0, 0, 0, 0, 0, 0, 0, 0, 0, 0, 0, 0, 0, 0, 0, 0, 0, 0, 0, 0, 0, 0, 0, 0, 0, 0, 0, 0, 0, 0, 0, 0, 0, 0, 0, 0, 0, 0
0, 0, 65, 1, 4, 17, 14, 16, 39, 48, 131, 114, 109, 139, 167, 180, 201, 220, 240, 247, 242, 270, 259, 252, 235, 237, 240, 236, 222, 215, 249, 176, 177, 155, 164, 169, 148, 137, 134, 92, 102, 85, 58, 64, 39, 18, 0, 0, 0, 0, 0, 0, 0, 0, 0, 0, 0, 0, 0, 0, 0, 0, 0, 0, 0, 0, 0, 0, 0, 0, 0, 0, 0, 0, 0, 0, 0, 0, 0, 0, 0, 0, 0, 0, 0, 0, 0, 0, 0, 0, 0, 0, 0, 0, 0, 0, 0, 0, 0, 0, 0, 0, 0, 0, 0, 0
0, 0, 66, 4, 4, 7, 9, 26, 36, 60, 114, 93, 116, 161, 197, 207, 199, 208, 238, 241, 285, 252, 266, 240, 276, 260, 250, 224, 212, 191, 200, 204, 188, 189, 133, 150, 127, 137, 116, 89, 88, 81, 82, 62, 32, 18, 2, 0, 0, 0, 0, 0, 0, 0, 0, 0, 0, 0, 0, 0, 0, 0, 0, 0, 0, 0, 0, 0, 0, 0, 0, 0, 0, 0, 0, 0, 0, 0, 0, 0, 0, 0, 0, 0, 0, 0, 0, 0, 0, 0, 0, 0, 0, 0, 0, 0, 0, 0, 0, 0, 0, 0, 0, 0, 0, 0
0, 0, 67, 0, 5, 7, 14, 27, 39, 66, 128, 84, 138, 142, 183, 186, 218, 220, 218, 276, 269, 232, 271, 248, 232, 242, 189, 216, 203, 193, 196, 188, 185, 173, 169, 172, 163, 143, 119, 107, 94, 87, 65, 39, 41, 16, 2, 0, 0, 0, 0, 0, 0, 0, 0, 0, 0, 0, 0, 0, 0, 0, 0, 0, 0, 0, 0, 0, 0, 0, 0, 0, 0, 0, 0, 0, 0, 0, 0, 0, 0, 0, 0, 0, 0, 0, 0, 0, 0, 0, 0, 0, 0, 0, 0, 0, 0, 0, 0, 0, 0, 0, 0, 0, 0, 0
0, 0, 68, 7, 1, 5, 12, 26, 38, 53, 102, 76, 97, 131, 166, 187, 202, 232, 224, 260, 246, 229, 215, 257, 222, 258, 232, 213, 211, 219, 170, 220, 180, 155, 157, 138, 144, 130, 124, 104, 93, 72, 66, 57, 41, 31, 1, 0, 0, 0, 0, 0, 0, 0, 0, 0, 0, 0, 0, 0, 0, 0, 0, 0, 0, 0, 0, 0, 0, 0, 0, 0, 0, 0, 0, 0, 0, 0, 0, 0, 0, 0, 0, 0, 0, 0, 0, 0, 0, 0, 0, 0, 0, 0, 0, 0, 0, 0, 0, 0, 0, 0, 0, 0, 0, 0
0, 0, 69, 3, 3, 12, 14, 28, 39, 67, 115, 99, 112, 142, 183, 211, 179, 239, 229, 229, 248, 240, 289, 228, 231, 257, 238, 192, 228, 197, 192, 186, 179, 193, 143, 132, 141, 122, 125, 107, 98, 81, 69, 48, 37, 20, 1, 0, 0, 0, 0, 0, 0, 0, 0, 0, 0, 0, 0, 0, 0, 0, 0, 0, 0, 0, 0, 0, 0, 0, 0, 0, 0, 0, 0, 0, 0, 0, 0, 0, 0, 0, 0, 0, 0, 0, 0, 0, 0, 0, 0, 0, 0, 0, 0, 0, 0, 0, 0, 0, 0, 0, 0, 0, 0, 0
0, 0, 70, 5, 4, 6, 10, 23, 41, 47, 124, 94, 120, 134, 155, 207, 200, 192, 204, 226, 281, 267, 254, 227, 248, 241, 245, 230, 209, 188, 189, 172, 175, 163, 161, 173, 137, 109, 116, 97, 86, 80, 61, 64, 37, 21, 2, 0, 0, 0, 0, 0, 0, 0, 0, 0, 0, 0, 0, 0, 0, 0, 0, 0, 0, 0, 0, 0, 0, 0, 0, 0, 0, 0, 0, 0, 0, 0, 0, 0, 0, 0, 0, 0, 0, 0, 0, 0, 0, 0, 0, 0, 0, 0, 0, 0, 0, 0, 0, 0, 0, 0, 0, 0, 0, 0
0, 0, 71, 5, 4, 7, 14, 19, 48, 57, 110, 94, 123, 141, 186, 211, 190, 200, 231, 234, 230, 262, 267, 255, 242, 248, 225, 232, 228, 223, 198, 187, 189, 154, 151, 184, 124, 137, 122, 115, 101, 76, 76, 60, 32, 23, 3, 0, 0, 0, 0, 0, 0, 0, 0, 0, 0, 0, 0, 0, 0, 0, 0, 0, 0, 0, 0, 0, 0, 0, 0, 0, 0, 0, 0, 0, 0, 0, 0, 0, 0, 0, 0, 0, 0, 0, 0, 0, 0, 0, 0, 0, 0, 0, 0, 0, 0, 0, 0, 0, 0, 0, 0, 0, 0, 0
0, 0, 72, 4, 2, 10, 18, 23, 45, 57, 130, 108, 123, 128, 178, 198, 205, 219, 222, 267, 258, 254, 249, 231, 224, 221, 258, 253, 224, 207, 189, 205, 155, 177, 172, 152, 117, 135, 110, 135, 102, 60, 76, 45, 49, 20, 0, 0, 0, 0, 0, 0, 0, 0, 0, 0, 0, 0, 0, 0, 0, 0, 0, 0, 0, 0, 0, 0, 0, 0, 0, 0, 0, 0, 0, 0, 0, 0, 0, 0, 0, 0, 0, 0, 0, 0, 0, 0, 0, 0, 0, 0, 0, 0, 0, 0, 0, 0, 0, 0, 0, 0, 0, 0, 0, 0
0, 0, 73, 2, 4, 11, 9, 35, 38, 36, 129, 104, 125, 145, 192, 192, 181, 196, 229, 241, 255, 226, 248, 252, 237, 222, 237, 239, 214, 211, 194, 165, 179, 157, 134, 155, 136, 160, 117, 109, 81, 80, 75, 61, 43, 20, 1, 0, 0, 0, 0, 0, 0, 0, 0, 0, 0, 0, 0, 0, 0, 0, 0, 0, 0, 0, 0, 0, 0, 0, 0, 0, 0, 0, 0, 0, 0, 0, 0, 0, 0, 0, 0, 0, 0, 0, 0, 0, 0, 0, 0, 0, 0, 0, 0, 0, 0, 0, 0, 0, 0, 0, 0, 0, 0, 0
0, 0, 74, 4, 3, 10, 28, 24, 41, 65, 127, 100, 115, 124, 154, 188, 196, 217, 232, 217, 259, 294, 251, 244, 249, 245, 209, 245, 267, 187, 206, 176, 173, 176, 169, 141, 134, 146, 121, 113, 81, 86, 57, 43, 50, 23, 2, 0, 0, 0, 0, 0, 0, 0, 0, 0, 0, 0, 0, 0, 0, 0, 0, 0, 0, 0, 0, 0, 0, 0, 0, 0, 0, 0, 0, 0, 0, 0, 0, 0, 0, 0, 0, 0, 0, 0, 0, 0, 0, 0, 0, 0, 0, 0, 0, 0, 0, 0, 0, 0, 0, 0, 0, 0, 0, 0
0, 0, 75, 6, 5, 8, 22, 29, 35, 60, 132, 84, 115, 172, 158, 203, 211, 217, 233, 228, 259, 265, 275, 272, 219, 270, 249, 199, 219, 219, 174, 192, 184, 202, 166, 155, 123, 124, 124, 101, 79, 88, 73, 41, 50, 24, 2, 0, 0, 0, 0, 0, 0, 0, 0, 0, 0, 0, 0, 0, 0, 0, 0, 0, 0, 0, 0, 0, 0, 0, 0, 0, 0, 0, 0, 0, 0, 0, 0, 0, 0, 0, 0, 0, 0, 0, 0, 0, 0, 0, 0, 0, 0, 0, 0, 0, 0, 0, 0, 0, 0, 0, 0, 0, 0, 0
0, 0, 76, 3, 2, 8, 20, 25, 38, 52, 131, 88, 131, 130, 153, 207, 178, 216, 240, 275, 266, 268, 289, 279, 251, 253, 203, 268, 228, 216, 216, 167, 141, 192, 164, 156, 145, 119, 106, 82, 98, 84, 56, 43, 44, 19, 0, 0, 0, 0, 0, 0, 0, 0, 0, 0, 0, 0, 0, 0, 0, 0, 0, 0, 0, 0, 0, 0, 0, 0, 0, 0, 0, 0, 0, 0, 0, 0, 0, 0, 0, 0, 0, 0, 0, 0, 0, 0, 0, 0, 0, 0, 0, 0, 0, 0, 0, 0, 0, 0, 0, 0, 0, 0, 0, 0
0, 0, 77, 10, 3, 7, 18, 23, 41, 45, 132, 93, 106, 141, 154, 204, 192, 201, 199, 221, 254, 256, 256, 218, 230, 224, 223, 223, 204, 202, 203, 177, 170, 147, 166, 156, 156, 105, 109, 97, 75, 88, 70, 48, 41, 21, 0, 0, 0, 0, 0, 0, 0, 0, 0, 0, 0, 0, 0, 0, 0, 0, 0, 0, 0, 0, 0, 0, 0, 0, 0, 0, 0, 0, 0, 0, 0, 0, 0, 0, 0, 0, 0, 0, 0, 0, 0, 0, 0, 0, 0, 0, 0, 0, 0, 0, 0, 0, 0, 0, 0, 0, 0, 0, 0, 0
